107_leadII.txt,355,612,898,1182,1512,1658,1865,2064,2260,2446,2633,2814,2994,3170,3342,3511,3674,3836,3993,4153,4313,4472,4631,4793,4958,5125,5290,5454,5620,5787,5953,6120,6288,6456,6624,6790,6953,7118,7280,7439,7600,7763,7922,8083,8246,8401,8565,8730,8895,9060,9221,9380,9544,9712,9881,10053,10225,10399,10750,10789,10820,11096,11279,11462,11645,11830,12012,12201,12384,12573,12755,12938,13115,13283,13456,13624,13789,13957,14122,14289,14460,14634,14810,15001,15193,15379,15561,15756,15949,16131,16317,16512,16715,16917,17107,17294,17474,17656,17832,18004,18172,18335,18502,18669,18833,18997,19162,19332,19464,19502,19674,19851,20028,20207,20380,20549,20713,20875,21033,21188,21342,21492,21639,21785,21930,22078,22231,22385,22541,22699,22854,23018,23183,23352,23522,23698,23875,24064,24246,24423,24599,24783,24967,25147,25318,25483,25651,25816,25976,26145,26311,26476,26642,26674,26818,26999,27169,27345,27527,27700,27879,28054,28222,28402,28571,28742,28909,29072,29102,29236,29404,29565,29724,29905,30081,30254,30437,30615,30795,30985,31170,31349,31528,31704,31879,32056,32233,32408,32578,32743,32904,33069,33250,33435,33634,33828,34028,34223,34405,34586,34776,34979,35174,35365,35570,35785,35979,36171,36371,36576,36779,36976,37187,37404,37618,37810,38017,38231,38428,38635,38852,39049,39242,39457,39674,39877,40074,40280,40498,40701,40903,41123,41352,41568,41793,42008,42219,42424,42621,42833,43058,43265,43490,43716,43916,44117,44330,44541,44738,44937,45151,45378,45599,45807,46012,46224,46436,46642,46845,47042,47234,47424,47614,47798,47984,48184,48384,48572,48772,48971,49158,49344,49531,49720,49908,50097,50284,50481,50695,50898,51104,51314,51532,51748,51953,52165,52372,52572,52765,52954,53144,53336,53524,53713,53915,54107,54303,54521,54747,54956,55153,55353,55550,55742,55927,56110,56291,56471,56647,56822,57007,57195,57389,57585,57779,57977,58173,58365,58550,58740,58936,59128,59317,59510,59703,59888,60079,60275,60478,60679,60870,61063,61254,61441,61637,61836,62020,62207,62392,62577,62756,62938,63115,63301,63487,63664,63837,64014,64188,64372,64570,64771,64975,65189,65387,65590,65807,66041,66253,66468,66679,66897,67118,67324,67521,67711,67899,68083,68273,68482,68696,68904,69131,69396,69651,69880,70101,70335,70557,70781,70988,71203,71427,71645,71847,72050,72317,72579,72804,73024,73237,73437,73645,73846,74043,74241,74433,74631,74827,75021,75213,75405,75600,75782,75966,76161,76367,76563,76757,76951,77142,77337,77534,77726,77937,78145,78355,78556,78755,78956,79158,79355,79546,79733,79910,80082,80251,80416,80581,80754,80923,81104,81302,81514,81724,81926,82134,82350,82566,82771,82983,83199,83411,83619,83841,84056,84259,84466,84682,84904,85111,85327,85554,85791,86007,86228,86453,86691,86933,87151,87379,87604,87841,88087,88320,88541,88772,89002,89212,89422,89636,89845,90043,90245,90453,90665,90878,91093,91318,91547,91786,92012,92237,92447,92662,92890,93125,93358,93575,93787,93987,94190,94392,94586,94776,94960,95139,95314,95490,95662,95830,96001,96168,96334,96499,96664,96827,96989,97150,97313,97472,97626,97781,97933,98089,98244,98404,98571,98742,98906,99074,99248,99429,99609,99804,99991,100173,100352,100521,100703,100885,101065,101251,101438,101625,101808,102001,102189,102378,102572,102760,102948,103133,103318,103496,103669,103847,104022,104192,104366,104536,104705,104877,105048,105213,105384,105554,105719,105888,106054,106221,106382,106548,106715,106882,107044,107205,107371,107534,107700,107869,108034,108200,108362,108529,108694,108856,109018,109182,109346,109507,109671,109831,109992,110147,110310,110471,110630,110792,110953,111114,111272,111437,111602,111769,111936,112105,112272,112438,112606,112772,112937,113102,113263,113417,113572,113730,113890,114046,114207,114375,114546,114720,114891,115060,115228,115393,115554,115719,115885,116054,116228,116399,116567,116740,116915,117087,117254,117422,117591,117759,117924,118089,118256,118418,118580,118745,118912,119078,119244,119413,119588,119760,119932,120102,120271,120436,120596,120759,120930,121099,121268,121438,121605,121772,121935,122102,122266,122434,122605,122792,122988,123181,123369,123548,123734,123922,124102,124292,124490,124686,124870,125062,125254,125440,125614,125785,125956,126128,126296,126461,126627,126798,126971,127143,127328,127506,127676,127848,128020,128189,128357,128523,128687,128850,129013,129180,129355,129539,129719,129903,130086,130268,130453,130632,130816,131005,131196,131381,131566,131748,131924,132101,132274,132443,132603,132762,132918,133074,133226,133375,133520,133664,133808,133950,134091,134233,134374,134514,134656,134799,134940,135082,135229,135375,135526,135683,135842,136001,136168,136346,136517,136703,136891,137063,137244,137425,137597,137771,137944,138114,138284,138455,138623,138790,138954,139115,139275,139432,139588,139743,139898,140053,140208,140364,140522,140679,140838,140993,141146,141299,141448,141596,141743,141889,142037,142186,142335,142487,142637,142788,142943,143098,143260,143419,143580,143746,143916,144082,144243,144404,144570,144730,144902,145080,145253,145424,145593,145756,145917,146075,146229,146392,146554,146718,146884,147051,147219,147385,147551,147713,147882,148062,148244,148427,148607,148783,148958,149126,149289,149462,149631,149809,149981,150156,150330,150506,150680,150842,151001,151173,151357,151537,151721,151900,152078,152243,152417,152587,152753,152919,153080,153257,153436,153611,153805,154001,154183,154382,154582,154772,154949,155132,155307,155487,155663,155839,156021,156197,156375,156541,156703,156867,157034,157202,157366,157525,157690,157853,158025,158201,158372,158550,158729,158895,159066,159233,159393,159556,159722,159885,160043,160206,160369,160532,160690,160846,161005,161172,161340,161516,161690,161870,162047,162245,162445,162632,162824,163019,163203,163394,163593,163790,163974,164170,164370,164558,164741,164939,165139,165329,165522,165719,165906,166088,166269,166453,166630,166817,167006,167185,167365,167544,167724,167901,168077,168265,168462,168651,168844,169037,169239,169441,169640,169836,170021,170204,170386,170570,170755,170938,171122,171304,171486,171676,171869,172060,172258,172457,172648,172835,173016,173189,173367,173549,173723,173898,174079,174270,174453,174651,174855,175058,175265,175468,175660,175841,176023,176205,176379,176554,176731,176907,177078,177258,177439,177611,177791,177969,178149,178320,178488,178665,178839,179007,179180,179354,179524,179694,179872,180045,180215,180398,180580,180755,180936,181113,181290,181472,181647,181823,182001,182177,182350,182517,182678,182837,182995,183149,183301,183455,183614,183770,183932,184099,184272,184447,184618,184803,184993,185175,185357,185540,185722,185895,186069,186248,186429,186606,186777,186966,187158,187339,187514,187697,187892,188072,188261,188447,188623,188797,188975,189155,189337,189517,189691,189872,190054,190232,190406,190586,190764,190934,191100,191269,191444,191612,191795,191977,192150,192320,192493,192684,192875,193064,193249,193424,193606,193781,193963,194145,194326,194507,194699,194898,195086,195279,195455,195644,195828,196012,196185,196365,196538,196717,196892,197078,197249,197434,197612,197783,197956,198128,198297,198463,198640,198818,198995,199174,199347,199523,199704,199890,200073,200253,200437,200623,200809,200990,201162,201339,201515,201686,201866,202042,202214,202388,202574,202765,202954,203139,203319,203507,203693,203872,204059,204244,204430,204608,204783,204965,205146,205319,205489,205664,205835,206005,206180,206355,206534,206723,206907,207086,207272,207455,207637,207814,207992,208170,208352,208525,208707,208889,209067,209250,209427,209598,209779,209959,210141,210326,210506,210673,210843,211015,211185,211353,211526,211707,211893,212066,212252,212431,212610,212789,212970,213159,213346,213528,213710,213890,214063,214238,214410,214582,214748,214916,215079,215240,215397,215554,215709,215863,216019,216192,216368,216539,216703,216880,217057,217230,217399,217581,217757,217927,218095,218268,218440,218607,218770,218932,219110,219277,219440,219606,219767,219928,220094,220260,220427,220590,220755,220918,221079,221239,221398,221555,221712,221865,222019,222178,222496,222654,222814,222984,223152,223316,223482,223655,223823,223985,224146,224308,224468,224625,224782,224936,225091,225252,225410,225567,225726,225887,226047,226206,226362,226524,226683,226839,226993,227146,227297,227447,227593,227739,227889,228039,228187,228335,228490,228645,228799,228952,229108,229263,229418,229569,229724,229876,230025,230176,230327,230475,230624,230775,230925,231073,231224,231379,231534,231685,231838,231991,232144,232294,232448,232602,232751,232904,233056,233208,233358,233509,233661,233809,233957,234108,234260,234411,234563,234716,234870,235020,235172,235326,235479,235629,235661,235786,235941,236093,236244,236399,236554,236708,236859,237012,237168,237323,237475,237629,237787,237942,238095,238252,238412,238570,238729,238891,239054,239215,239377,239541,239705,239866,240027,240186,240337,240491,240647,240802,240954,241109,241266,241421,241573,241725,241882,242038,242191,242348,242504,242659,242812,242970,243127,243282,243437,243596,243755,243911,244065,244221,244380,244556,244735,244906,245066,245233,245397,245554,245709,245859,246010,246162,246311,246461,246615,246770,246931,247109,247286,247460,247628,247793,247958,248129,248301,248478,248650,248819,248989,249171,249359,249558,249751,249935,250118,250306,250485,250657,250823,250988,251149,251305,251460,251626,251793,251963,252136,252316,252498,252678,252860,253039,253218,253399,253588,253777,253964,254154,254356,254570,254779,254980,255171,255357,255544,255732,255921,256109,256290,256468,256645,256824,257006,257192,257376,257557,257736,257916,258095,258275,258452,258627,258799,258972,259145,259317,259485,259657,259828,260000,260171,260343,260511,260678,260846,261015,261178,261350,261525,261699,261868,262045,262224,262402,262574,262752,262933,263113,263289,263478,263663,263841,264023,264204,264382,264558,264743,264927,265102,265278,265465,265648,265822,266007,266192,266378,266557,266741,266925,267104,267284,267466,267648,267831,268007,268188,268368,268547,268719,268898,269073,269245,269417,269583,269752,269924,270094,270258,270430,270602,270772,270937,271108,271279,271452,271618,271791,271963,272135,272303,272474,272645,272814,272980,273148,273315,273475,273637,273805,273971,274133,274295,274460,274628,274791,274955,275121,275285,275446,275609,275777,275942,276102,276268,276432,276596,276760,276925,277088,277252,277422,277587,277748,277916,278086,278252,278416,278586,278758,278925,279095,279262,279424,279590,279758,279917,280086,280249,280411,280572,280736,280895,281051,281205,281360,281517,281676,281830,281982,282136,282291,282444,282598,282755,282915,283074,283237,283404,283573,283742,283910,284080,284251,284420,284583,284746,284909,285071,285231,285391,285552,285716,285882,286049,286219,286390,286565,286746,286927,287106,287291,287477,287658,287836,288011,288185,288363,288546,288720,288898,289079,289255,289432,289614,289792,289962,290135,290308,290478,290650,290827,290999,291171,291349,291530,291704,291882,292062,292242,292419,292599,292774,292952,293132,293309,293479,293652,293836,294022,294214,294400,294588,294787,294992,295192,295386,295579,295773,295964,296147,296328,296508,296701,296891,297093,297300,297509,297716,297917,298109,298305,298503,298708,298917,299128,299330,299544,299758,299963,300174,300394,300612,300822,301034,301254,301474,301687,301928,302154,302367,302582,302804,303020,303224,303436,303649,303848,304049,304258,304472,304680,304899,305116,305322,305537,305760,305981,306192,306418,306655,306874,307096,307314,307521,307728,307934,308141,308358,308577,308794,309013,309238,309453,309675,309916,310161,310388,310609,310832,311051,311259,311478,311698,311911,312117,312324,312535,312738,312942,313154,313365,313571,313771,313978,314187,314389,314599,314815,315017,315226,315426,315621,315819,316021,316225,316426,316636,316855,317065,317276,317493,317707,317912,318116,318328,318540,318747,318961,319176,319385,319592,319802,320006,320210,320418,320625,320828,321031,321236,321434,321637,321839,322037,322236,322440,322645,322847,323052,323257,323455,323659,323852,324049,324245,324438,324630,324826,325018,325206,325397,325590,325788,325982,326177,326378,326579,326774,326973,327169,327361,327551,327752,327955,328160,328357,328555,328751,328946,329138,329332,329522,329712,329902,330094,330292,330490,330680,330871,331068,331270,331472,331670,331867,332071,332278,332487,332699,332907,333115,333325,333527,333726,333931,334147,334355,334559,334769,334964,335154,335349,335555,335768,335989,336203,336410,336609,336799,336986,337164,337351,337542,337739,337931,338131,338345,338557,338763,338962,339165,339379,339592,339818,340042,340259,340465,340669,340865,341059,341249,341447,341645,341846,342043,342248,342458,342667,342860,343050,343242,343432,343627,343813,344003,344205,344416,344626,344826,345024,345229,345437,345643,345841,346038,346239,346452,346660,346856,347067,347294,347520,347733,347940,348153,348369,348590,348807,349017,349232,349450,349659,349873,350088,350302,350514,350723,350937,351152,351365,351567,351773,351978,352186,352387,352592,352801,353013,353219,353421,353629,353836,354042,354244,354455,354667,354883,355085,355292,355505,355721,355925,356133,356338,356536,356738,356942,357146,357340,357540,357738,357935,358130,358322,358522,358719,358912,359100,359289,359483,359682,359874,360066,360265,360462,360652,360840,361040,361242,361445,361647,361849,362052,362261,362472,362686,362894,363106,363318,363531,363734,363943,364165,364393,364619,364836,365051,365260,365467,365664,365863,366063,366264,366461,366667,366882,367093,367297,367504,367724,367944,368159,368366,368577,368794,369005,369207,369413,369619,369823,370022,370226,370435,370643,370841,371038,371239,371438,371640,371845,372047,372252,372457,372656,372857,373061,373269,373478,373680,373885,374089,374288,374484,374682,374883,375085,375287,375489,375685,375884,376091,376296,376500,376705,376908,377111,377308,377507,377710,377912,378112,378310,378508,378702,378896,379093,379289,379483,379680,379880,380082,380285,380489,380690,380885,381083,381286,381490,381694,381897,382099,382302,382503,382703,382898,383092,383290,383493,383696,383907,384119,384332,384529,384730,384933,385138,385334,385527,385725,385929,386135,386348,386556,386769,386984,387207,387417,387629,387838,388041,388241,388443,388649,388847,389046,389248,389443,389637,389833,390033,390232,390425,390621,390816,391011,391200,391392,391586,391784,391984,392177,392376,392574,392771,392969,393170,393375,393579,393782,393983,394183,394382,394580,394773,394960,395151,395347,395540,395733,395932,396129,396318,396508,396704,396905,397106,397301,397497,397696,397892,398083,398276,398466,398654,398836,399025,399217,399403,399590,399775,399961,400141,400327,400513,400706,400901,401097,401282,401463,401648,401838,402028,402212,402394,402578,402756,402931,403108,403278,403445,403612,403778,403947,404134,404337,404527,404716,404906,405095,405286,405470,405663,405868,406090,406313,406542,406784,407016,407245,407485,407721,407947,408163,408386,408607,408816,409021,409236,409454,409666,409880,410081,410288,410502,410713,410915,411119,411328,411544,411764,411985,412195,412402,412617,412830,413023,413213,413405,413595,413781,413965,414151,414340,414527,414719,414911,415105,415286,415469,415643,415815,415982,416145,416309,416472,416639,416808,416980,417154,417326,417507,417695,417885,418079,418265,418460,418668,418886,419110,419315,419523,419744,419962,420182,420387,420577,420768,420947,421124,421303,421475,421647,421814,421979,422144,422305,422468,422630,422791,423113,423273,423430,423589,423751,423911,424068,424233,424398,424560,424725,424898,425068,425241,425408,425570,425737,425903,426066,426225,426386,426546,426707,426868,427026,427185,427345,427502,427660,427818,427976,428136,428297,428458,428616,428776,428935,429093,429252,429410,429567,429723,429879,430035,430186,430342,430500,430657,430814,430970,431130,431293,431459,431627,431792,431956,432117,432279,432438,432599,432757,432914,433074,433240,433410,433581,433748,433922,434105,434293,434479,434668,434858,435037,435222,435408,435588,435760,435942,436118,436293,436467,436644,436813,436842,436992,437166,437334,437505,437688,437867,438044,438226,438418,438600,438777,438966,439152,439327,439509,439689,439875,440048,440231,440417,440592,440765,440942,441116,441287,441460,441628,441802,441977,442151,442319,442493,442663,442829,443002,443171,443334,443501,443664,443824,443981,444140,444301,444457,444613,444776,444939,445102,445262,445428,445594,445755,445923,446094,446264,446433,446606,446780,446949,447119,447291,447462,447626,447797,447969,448137,448308,448481,448648,448819,448996,449165,449331,449498,449670,449852,450025,450201,450378,450552,450723,450900,451071,451235,451405,451577,451748,451917,452097,452279,452454,452639,452830,453014,453195,453380,453564,453742,453923,454098,454270,454438,454613,454794,454967,455154,455343,455528,455713,455898,456077,456248,456426,456606,456787,456961,457143,457324,457501,457683,457872,458055,458254,458447,458633,458820,459003,459187,459369,459555,459744,459935,460139,460342,460549,460752,460940,461140,461336,461535,461724,461913,462096,462270,462443,462614,462786,462954,463122,463285,463452,463619,463787,463956,464117,464278,464438,464601,464762,464929,465096,465270,465445,465627,465811,465994,466167,466349,466524,466698,466870,467043,467209,467379,467546,467713,467877,468041,468202,468361,468521,468681,468846,469015,469182,469349,469517,469688,469855,470031,470212,470382,470556,470731,470912,471091,471276,471457,471630,471762,471802,471974,472142,472313,472486,472665,472840,473022,473205,473384,473569,473755,473937,473960,474120,474298,474474,474649,474817,474985,475156,475322,475485,475650,475820,475989,476157,476326,476503,476678,476851,477022,477194,477367,477538,477707,477884,478086,478282,478476,478664,478845,479025,479203,479383,479564,479743,479925,480107,480286,480463,480642,480820,480997,481174,481354,481540,481726,481912,482101,482293,482487,482680,482868,483053,483233,483419,483609,483802,483995,484185,484378,484579,484781,484982,485176,485368,485563,485757,485949,486142,486335,486526,486717,486913,487103,487294,487484,487671,487854,488039,488229,488420,488613,488801,488983,489162,489340,489521,489703,489885,489992,490062,490242,490418,490596,490771,490950,491129,491304,491480,491582,491819,491989,492153,492327,492498,492669,492839,493019,493196,493378,493558,493743,493925,494103,494281,494466,494654,494844,495027,495216,495402,495588,495771,495962,496156,496350,496547,496739,496935,497138,497344,497546,497742,497928,498118,498309,498500,498692,498890,499089,499281,499469,499566,499658,499697,499845,500032,500215,500404,500596,500787,500974,501159,501342,501525,501707,501888,502063,502247,502433,502621,502816,503010,503042,503118,503138,503206,503395,503581,503760,503936,504107,504274,504446,504629,504818,505006,505210,505418,505625,505825,506029,506234,506441,506641,506838,507027,507213,507397,507580,507762,507947,508138,508330,508522,508723,508931,509137,509340,509547,509747,509942,510138,510329,510522,510714,510908,511099,511298,511497,511697,511897,512096,512286,512479,512676,512868,513062,513260,513460,513655,513851,514047,514239,514431,514622,514808,514993,515180,515371,515554,515735,515915,516089,516263,516432,516603,516771,516935,517102,517269,517435,517606,517776,517942,518105,518199,518268,518430,518727,518748,518913,519074,519235,519263,519394,519552,519710,519866,520020,520175,520331,520492,520657,520830,520999,521170,521341,521512,521684,521858,522002,522036,522212,522390,522564,522594,522747,522927,523105,523286,523463,523636,523858,523907,523939,523992,524161,524346,524526,524702,524878,525053,525223,525394,525562,525728,525893,526057,526219,526378,526539,526698,526854,527011,527168,527325,527487,527646,527804,527964,528125,528285,528445,528609,528770,528932,529095,529258,529421,529582,529743,529903,530060,530220,530376,530531,530687,530842,530996,531149,531305,531333,531461,531618,531777,531937,532094,532253,532408,532565,532722,532877,533027,533179,533343,533508,533668,533825,533981,534079,534135,534286,534351,534391,534436,534585,534733,534881,535032,535185,535334,535487,535638,535793,535943,536098,536252,536406,536556,536710,536865,537024,537178,537335,537494,537655,537816,537976,538136,538295,538451,538612,538772,538932,539093,539251,539407,539565,539722,539882,540039,540193,540215,540344,540496,540648,540802,540958,541114,541267,541423,541578,541732,541885,542037,542187,542335,542481,542627,542775,542921,543067,543218,543368,543517,543664,543811,543966,544118,544271,544424,544576,544731,544886,545038,545191,545347,545501,545654,545804,545955,546110,546200,546263,546413,546564,546719,546872,547022,547173,547327,547481,547635,547667,547795,547953,548109,548268,548432,548592,548749,548909,549070,549228,549382,549463,549537,549691,549843,549995,550147,550303,550457,550612,550763,550915,551069,551225,551380,551533,551689,551842,551990,552138,552291,552441,552593,552743,552897,553052,553206,553360,553385,553503,553676,553831,553986,554145,554455,554474,554607,554762,554915,555065,555212,555359,555511,555662,555811,555962,556115,556267,556406,556571,556727,556884,557042,557197,557354,557512,557669,557826,557982,558143,558301,558459,558615,558775,558957,559127,559295,559460,559620,559775,559925,560075,560224,560377,560533,560694,560854,561014,561170,561329,561490,561655,561817,561979,562138,562300,562463,562628,562793,562957,563121,563285,563445,563604,563763,563926,564089,564247,564399,564700,564851,565002,565155,565312,565467,565623,565781,565939,566102,566268,566440,566608,566794,566980,567157,567343,567521,567699,567864,568039,568209,568372,568537,568703,568864,569030,569196,569357,569520,569684,569844,570005,570167,570332,570511,570704,570898,571086,571272,571451,571624,571801,571990,572183,572378,572572,572780,572971,573161,573344,573533,573728,573930,574127,574328,574514,574694,574874,575055,575233,575408,575540,575580,575635,575752,575919,576083,576246,576407,576565,576722,576880,577042,577206,577372,577539,577707,577890,578070,578251,578430,578610,578791,578968,579145,579321,579499,579676,579848,580020,580194,580364,580531,580691,580853,581014,581175,581340,581509,581682,581853,582024,582196,582367,582538,582707,582874,583039,583206,583374,583542,583707,583873,584040,584204,584369,584535,584697,584859,585023,585189,585359,585535,585711,585885,586061,586237,586411,586580,586754,586929,587105,587284,587475,587678,587881,588080,588289,588498,588699,588895,589094,589297,589501,589694,589885,590076,590261,590439,590613,590791,590972,591150,591333,591521,591716,591931,592145,592350,592550,592749,592952,593147,593341,593531,593714,593892,594070,594248,594425,594605,594794,594985,595172,595355,595539,595717,595891,596064,596243,596426,596611,596795,596985,597179,597368,597556,597740,598088,598259,598429,598597,598768,598940,599110,599281,599453,599627,599799,599970,600137,600312,600488,600670,600850,601038,601235,601436,601632,601826,602024,602219,602406,602590,602771,602948,603120,603291,603460,603621,603781,603939,604096,604256,604418,604579,604748,604914,605081,605303,605417,605586,605754,605923,606092,606260,606435,606614,606789,606964,607144,607322,607494,607663,607833,608005,608173,608338,608502,608666,608833,608998,609329,609678,609849,610020,610190,610357,610521,610684,610844,611005,611169,611332,611495,611659,611820,611982,612149,612319,612490,612659,612828,612998,613170,613344,613515,613685,613858,614028,614193,614359,614527,614690,614858,615028,615195,615363,615534,615707,615884,616060,616235,616402,616572,616737,616832,617052,617206,617360,617511,617662,617813,617964,618116,618267,618422,618579,618734,618929,619054,619215,619375,619535,619699,619863,620027,620192,620358,620522,620687,620854,621019,621183,621348,621522,621697,621876,622056,622229,622400,622567,622735,622901,623062,623223,623382,623544,623707,623868,624030,624190,624349,624508,624668,624830,624995,625159,625319,625481,625642,625801,625961,626122,626282,626442,626604,626766,626789,626923,627242,627398,627555,627710,627866,628018,628168,628321,628472,628622,628773,628922,629068,629213,629360,629519,629674,629828,629978,630127,630275,630421,630574,630605,630724,630872,631017,631162,631307,631473,631595,631742,631891,632038,632186,632333,632484,632637,632792,632947,633098,633249,633401,633557,633715,633868,634023,634177,634334,634489,634644,634795,634990,635096,635243,635397,635550,635705,635857,636012,636168,636323,636475,636631,636777,636990,637099,637205,637404,637554,637702,637848,637996,638143,638186,638292,638439,638590,638742,638892,639039,639188,639339,639492,639640,639795,639948,640098,640255,640413,640502,640571,640725,640888,641047,641201,641353,641491,641658,641810,641964,642119,642270,642336,642420,642573,642727,642879,643035,643346,643499,643653,643812,643970,644123,644279,644438,644599,644754,644910,645069,645229,645384,645541,645705,645867,646024,646184,646347,646507,646664,646823,646987,647147,647306,647471,647632,647790,647951,648111,648269,648426,648588,648744,649053,649203,649365,649517,649671,649832,649987,650140,650293,650449,650607,650762,650918,651077,651239,651397,651719,651876,652036,652198,652358,652515,652672,652829,652983,653134,653286,653438,653589,653737,653891,654041,654194,654350,654505,654583,654658,654811,654964,655004,655114,655266,655717,655864,656010,656156,656305,656451,656598,656745,656892,657042,657069,657192,657336,657483,657629,657777,657926,658069,658212,658356,658500,658645,658789,658937,659085,659232,659380,659528,659675,659819,659961,660104,660248,660390,660535,660682,660831,660976,661122,661267,661410,661553,661693,661837,661978,662121,662263,662406,662587,662690,662830,662972,663114,663253,663396,663542,663692,663846,663897,663998,664149,664298,664444,664590,664876,665016,665158,665301,665445,665589,665731,666016,666158,666303,666449,666594,666741,666889,667037,667185,667330,667476,667621,667979,668066,668219,668371,668547,668675,668830,668988,669146,669301,669458,669627,669792,669958,670119,670275,670430,670590,670754,670922,671091,671258,671431,671615,671807,672008,672208,672405,672591,672772,672955,673138,673318,673503,673683,673859,674034,674210,674391,674585,674780,674967,675151,675334,675524,675709,675890,676067,676241,676412,676585,676760,676940,677122,677296,677470,677637,677799,677961,678123,678448,678612,678776,678947,679120,679292,679462,679634,679819,680012,680188,680365,680542,680721,680893,681065,681240,681407,681578,681745,681907,682067,682229,682381,682537,682692,682847,683000,683154,683242,683309,683460,683614,683772,683850,684040,684088,684246,684409,684579,684744,684908,685070,685230,685390,685547,685704,685858,686011,686166,686324,686484,686640,686796,686955,687113,687271,687423,687574,687665,687721,687874,688024,688174,688325,688477,688629,688786,688943,689101,689264,689425,689582,689739,689892,690045,690196,690342,690492,690644,690795,690945,691098,691246,691397,691550,691697,691834,692003,692159,692315,692470,692593,692635,692819,693006,693189,693376,693565,693764,693970,694186,694398,694554,694781,694963,695134,695299,695422,695462,695623,695698,695780,695930,696080,696226,696371,696453,696515,696662,696809,696991,697114,697277,697437,697596,697751,697905,698054,698199,698345,698495,698645,698804,698963,699128,699311,699484,699654,699836,700009,700177,700344,700516,700688,700862,701031,701199,701366,701534,701695,701855,702028,702310,702377,702549,702605,702719,702783,703048,703210,703376,703545,703713,703771,703883,703979,704213,704373,704528,704681,704841,705008,705177,705359,705529,705708,705891,706081,706274,706405,706463,706645,706821,706993,707158,707323,707494,707593,707840,707934,708018,708196,708369,708538,708706,708877,709049,709220,709392,709561,709730,709896,710067,710246,710430,710613,710794,710971,711139,711314,711497,711679,711854,712040,712230,712421,712602,712784,712926,712972,713163,713346,713536,713730,713928,714130,714314,714502,714688,714880,715070,715255,715449,715645,715828,716014,716207,716420,716636,716854,717065,717268,717455,717640,717819,717990,718165,718351,718541,718564,718726,718917,719039,719115,719309,719498,719692,719891,720088,720283,720480,720676,720865,721047,721226,721401,721573,721744,721766,721922,722095,722271,722452,722635,722753,722817,723008,723198,723383,723571,723756,723937,724116,724303,724489,724667,724851,725040,725226,725406,725588,725767,725953,726143,726336,726520,726707,726890,727074,727259,727440,727622,727802,727979,728157,728338,728512,728682,728854,729025,729196,729370,729548,729728,729902,730075,730247,730416,730586,730756,730931,731112,731293,731477,731662,731838,732016,732191,732365,732539,732714,732884,733061,733241,733426,733608,733797,733987,734171,734358,734549,734734,734921,735121,735310,735430,735501,735687,735866,736040,736214,736383,736547,736719,736893,737077,737258,737434,737617,737808,738000,738188,738386,738575,738760,738974,739192,739400,739602,739796,739977,740153,740320,740488,740649,740814,740979,741150,741331,741509,741691,741877,742066,742252,742440,742628,742814,743001,743191,743376,743560,743740,743915,744084,744250,744410,744573,744728,744888,745048,745220,745398,745573,745757,745943,746075,746128,746314,746506,746700,746897,747095,747283,747472,747654,747830,748004,748181,748358,748534,748715,748895,749077,749256,749435,749610,749782,749956,750125,750288,750451,750614,750778,750939,751102,751277,751454,751630,751808,751983,752167,752355,752549,752744,752930,753110,753286,753461,753627,753718,753795,753961,754125,754285,754442,754600,754764,754931,755097,755261,755430,755599,755766,755938,756108,756279,756453,756626,756806,756993,757177,757355,757533,757709,757881,758049,758214,758378,758544,758715,758888,759059,759227,759397,759572,759748,759928,760105,760284,760464,760642,760820,760993,761167,761340,761513,761685,761854,762021,762185,762352,762519,762689,762863,763038,763209,763380,763549,763713,763877,764042,764208,764379,764547,764714,764884,765062,765242,765420,765593,765767,765941,766115,766287,766457,766632,766808,766984,767165,767351,767521,767699,767875,768051,768235,768425,768501,768605,768782,768961,769140,769317,769488,769570,769660,769836,770007,770177,770345,770511,770672,770831,770986,771142,771301,771463,771630,771799,771965,772132,772302,772472,772641,772808,772972,773133,773292,773458,773628,773801,773978,774154,774326,774495,774664,774835,775010,775186,775357,775531,775709,775890,776066,776239,776414,776588,776762,776934,777103,777269,777434,777598,777768,777940,778115,778287,778466,778644,778679,778822,778999,779169,779337,779504,779671,779838,780003,780171,780341,780517,780547,780690,780861,781029,781199,781374,781550,781723,781904,782089,782271,782447,782619,782786,782951,783116,783283,783456,783627,783805,783982,784157,784329,784500,784670,784840,785013,785185,785357,785527,785698,785869,786042,786210,786373,786532,786691,786851,787010,787170,787336,787502,787672,787840,788008,788175,788346,788520,788692,788862,789036,789211,789386,789559,789735,789910,790081,790254,790428,790602,790776,790952,791129,791304,791478,791648,791815,791986,792157,792324,792499,792679,792854,793025,793196,793367,793538,793706,793872,794040,794209,794381,794550,794718,794886,795052,795214,795375,795539,795705,795874,796038,796201,796366,796531,796699,796869,797038,797205,797372,797537,797705,797874,798045,798218,798387,798557,798729,798906,799083,799256,799432,799610,799792,799971,800148,800327,800506,800684,800858,801036,801210,801383,801559,801734,801907,802077,802248,802419,802590,802758,802927,803096,803268,803439,803607,803776,803945,804115,804283,804447,804610,804773,804937,805106,805268,805432,805595,805756,805914,806077,806243,806407,806575,806749,806921,807092,807261,807430,807598,807767,807938,808112,808285,808454,808624,808798,808971,809145,809315,809483,809655,809827,809998,810168,810339,810509,810680,810847,811011,811182,811351,811523,811697,811877,812055,812229,812401,812573,812744,812917,813086,813253,813421,813593,813765,813937,814106,814276,814446,814615,814783,814946,815109,815270,815432,815589,815748,815910,816072,816237,816404,816572,816738,816909,817081,817252,817428,817603,817778,817949,818122,818297,818474,818652,818828,819007,819188,819371,819553,819733,819909,820084,820257,820430,820606,820783,820961,821136,821315,821492,821667,821838,822012,822190,822368,822544,822721,822901,823079,823255,823426,823594,823760,823924,824090,824257,824424,824595,824771,824962,825152,825337,825520,825701,825880,826055,826229,826404,826579,826755,826928,827103,827280,827458,827634,827804,827970,828137,828302,828463,828625,828789,828958,829130,829301,829474,829641,829805,829964,830123,830283,830437,830595,830750,830905,831059,831211,831361,831514,831670,831826,831994,832154,832319,832481,832641,832807,832973,833141,833306,833469,833630,833789,833947,834104,834261,834415,834567,834719,834870,835019,835167,835314,835458,835748,835898,836055,836217,836376,836536,836695,836860,837023,837182,837217,837343,837502,837659,837817,837971,838124,838277,838434,838591,838752,838913,839075,839237,839397,839555,839714,839873,840030,840186,840340,840492,840646,840804,840963,841124,841286,841447,841604,841762,841919,842075,842231,842392,842556,842716,842876,843038,843201,843362,843523,843682,843843,844003,844062,844094,844162,844318,844469,844619,844769,844920,845074,845233,845283,845388,845548,845707,845866,846177,846329,846512,846632,846785,846941,847096,847253,847417,847579,847744,847911,848085,848195,848427,848599,848776,848954,849127,849296,849466,849636,849804,849974,850145,850317,850485,850650,850814,850980,851144,851306,851464,851622,851776,851928,852078,852227,852378,852528,852682,852837,852994,853154,853315,853483,853646,853807,853963,854118,854270,854432,854469,854593,854752,854906,855062,855225,855393,855444,855503,855572,855740,855907,856070,856231,856387,856542,856696,856851,857007,857163,857321,857477,857633,857790,857945,858102,858258,858417,858576,858735,858894,859054,859210,859366,859522,859675,859829,859988,860143,860300,860455,860608,860758,860907,861055,861201,861349,861508,861667,861828,861989,862018,862147,862304,862460,862617,862774,862931,863086,863245,863405,863563,863723,863883,864043,864207,864377,864548,864725,864902,865081,865261,865440,865623,865815,866008,866199,866382,866561,866737,866912,867084,867257,867426,867594,867760,867927,868096,868264,868429,868591,868751,868911,869070,869228,869388,869552,869716,869880,870042,870204,870365,870526,870691,870862,871034,871198,871363,871529,871696,871861,872031,872204,872379,872553,872728,872896,873062,873227,873387,873544,873641,873701,873738,873858,874013,874168,874324,874485,874649,874816,874987,875158,875337,875517,875696,875876,876051,876224,876394,876558,876717,876880,877033,877188,877344,877500,877664,877833,878005,878173,878340,878677,878841,879010,879182,879355,879521,879689,879856,880028,880196,880369,880540,880707,880879,881052,881222,881386,881557,881727,881898,882064,882229,882399,882569,882741,882864,882912,883086,883114,883257,883422,883590,883759,883927,884099,884272,884449,884624,884795,884965,885132,885293,885453,885614,885781,885951,886059,886119,886284,886456,886635,886812,886986,887158,887326,887492,887659,887823,887982,888145,888314,888488,888665,888845,889023,889199,889377,889555,889729,889894,890062,890235,890415,890604,890789,890969,891145,891321,891501,891677,891853,892029,892205,892383,892564,892745,892923,893092,893255,893414,893571,893723,893873,894026,894183,894345,894510,894669,894829,894994,895157,895321,895484,895652,895826,896000,896175,896351,896519,896685,896849,897022,897196,897373,897553,897729,897920,898118,898320,898519,898706,898889,899068,899245,899421,899593,899762,899935,900107,900281,900463,900645,900828,901010,901192,901374,901547,901712,901873,902030,902180,902329,902477,902623,902772,902923,903074,903227,903382,903540,903696,903849,903999,904150,904301,904466,904627,904784,904946,905116,905301,905476,905650,905821,905984,906146,906303,906461,906621,906782,906946,907112,907277,907440,907603,907767,907936,908105,908278,908452,908628,908804,908983,909158,909327,909498,909662,909826,909990,910160,910331,910503,910680,910859,911035,911212,911400,911581,911759,911932,912103,912265,912423,912576,912732,912890,913056,913220,913383,913556,913735,913909,914087,914270,914456,914637,914819,915002,915183,915368,915548,915727,915900,916073,916246,916418,916588,916757,916926,917090,917249,917408,917567,917727,917890,918060,918232,918411,918591,918770,918948,919130,919316,919500,919677,919851,920020,920186,920351,920515,920679,920844,921009,921174,921339,921503,921668,921833,922002,922169,922341,922517,922690,922871,923059,923243,923432,923622,923809,923992,924179,924363,924539,924659,924716,924894,925071,925245,925418,925592,925765,925940,926121,926310,926506,926704,926902,927095,927281,927458,927636,927813,927989,928167,928344,928443,928475,928522,928695,928866,929035,929228,929374,929541,929713,929764,929890,930070,930256,930436,930619,930786,930915,930985,931175,931359,931550,931742,931933,932122,932308,932484,932657,932829,932997,933168,933348,933527,933707,933892,934082,934269,934292,934458,934645,934824,935007,935191,935375,935558,935734,935911,936088,936263,936438,936609,936784,936958,937135,937316,937498,937679,937857,937963,938084,938210,938387,938559,938733,938908,939085,939263,939440,939615,939788,939963,940133,940299,940469,940638,940816,940999,941183,941372,941566,941757,942068,942119,942293,942466,942589,942807,942971,943134,943298,943459,943619,943779,943940,944102,944264,944283,944424,944587,944749,944905,945065,945228,945389,945554,945662,945718,945879,946039,946195,946350,946504,946658,946814,946967,947119,947273,947434,947600,947765,947927,948091,948258,948425,948586,948750,948911,949072,949236,949406,949578,949747,949912,950077,950244,950408,950571,950736,950897,951058,951217,951375,951535,951694,951852,952009,952167,952325,952491,952659,952831,953003,953175,953355,953538,953721,953898,954073,954247,954375,954419,954513,954586,954756,954929,955103,955275,955443,955609,955772,955933,956094,956257,956418,956514,956581,956746,956914,957085,957253,957415,957580,957749,957918,958082,958246,958405,958562,958721,958883,959041,959199,959354,959509,959664,959815,959967,960125,960290,960463,960633,960803,960984,961164,961346,961525,961709,961896,962086,962261,962437,962610,962783,962952,963129,963317,963498,963672,963856,964047,964229,964423,964614,964797,964976,965149,965331,965511,965693,965872,966045,966212,966379,966539,966697,966857,967019,967188,967364,967538,967714,967893,968076,968253,968430,968611,968792,968970,969144,969317,969491,969663,969838,970010,970180,970350,970516,970680,970841,971004,971166,971328,971496,971669,971847,972029,972207,972387,972572,972758,972942,973121,973301,973483,973665,973848,974025,974203,974381,974554,974728,974904,975086,975276,975463,975650,975834,976018,976204,976386,976567,976743,976917,977090,977260,977428,977589,977752,977913,978072,978232,978391,978554,978732,978915,979093,979270,979450,979638,979827,980017,980205,980390,980573,980755,980930,981106,981283,981461,981640,981823,982008,982191,982369,982541,982716,982896,983077,983255,983438,983621,983809,983992,984172,984351,984525,984697,984874,985055,985230,985404,985580,985754,985928,986104,986278,986454,986628,986802,986980,987159,987336,987515,987694,987876,988059,988245,988428,988609,988790,988966,989118,989139,989308,989474,989642,989812,989980,990148,990320,990496,990670,990842,991019,991196,991368,991538,991710,991880,992049,992215,992385,992548,992708,992867,993025,993182,993339,993497,993654,993812,993970,994125,994278,994428,994578,994728,994877,995027,995180,995330,995479,995629,995779,995928,996075,996222,996369,996514,996537,996660,996803,996945,997087,997231,997377,997525,997677,997990,998143,998300,998459,998615,998776,998867,998936,999092,999246,999401,999560,999721,999889,1000057,1000224,1000389,1000500,1000567,1000756,1000948,1001140,1001327,1001524,1001721,1001916,1002111,1002302,1002499,1002692,1002885,1003073,1003259,1003443,1003625,1003803,1003981,1004156,1004334,1004517,1004698,1004874,1005055,1005235,1005411,1005587,1005763,1005936,1006109,1006284,1006457,1006596,1006630,1006801,1006820,1006971,1007144,1007318,1007494,1007669,1007842,1008013,1008189,1008362,1008539,1008714,1008891,1009067,1009238,1009402,1009565,1009727,1009889,1010059,1010228,1010393,1010559,1010722,1010889,1011060,1011230,1011404,1011577,1011751,1011920,1012088,1012253,1012416,1012576,1012736,1012894,1013051,1013209,1013284,1013472,1013678,1013838,1013997,1014152,1014307,1014460,1014614,1014761,1014914,1015066,1015218,1015373,1015526,1015682,1016006,1016168,1016326,1016487,1016683,1016879,1017055,1017228,1017397,1017563,1017730,1017891,1018051,1018209,1018366,1018523,1018681,1018839,1019000,1019160,1019320,1019480,1019642,1019803,1019964,1020129,1020292,1020455,1020619,1020785,1020955,1021125,1021300,1021480,1021661,1021842,1022015,1022188,1022363,1022541,1022716,1022895,1023073,1023249,1023422,1023596,1023768,1023937,1024108,1024279,1024448,1024618,1024788,1024957,1025123,1025285,1025448,1025608,1025765,1025924,1026082,1026241,1026401,1026558,1026716,1026872,1027029,1027186,1027345,1027506,1027667,1027829,1027991,1028151,1028312,1028471,1028632,1028794,1028958,1029120,1029282,1029445,1029606,1029767,1029929,1030090,1030251,1030413,1030574,1030739,1030901,1031062,1031219,1031377,1031535,1031694,1031856,1032020,1032185,1032356,1032529,1032705,1032879,1033051,1033218,1033384,1033549,1033714,1033878,1034041,1034206,1034371,1034535,1034698,1034859,1035019,1035178,1035337,1035497,1035656,1035816,1035976,1036134,1036289,1036445,1036598,1036753,1036910,1037066,1037223,1037382,1037538,1037694,1037849,1038002,1038155,1038308,1038466,1038631,1038807,1038986,1039164,1039342,1039517,1039688,1039856,1040027,1040195,1040362,1040530,1040697,1040860,1041024,1041185,1041344,1041501,1041657,1041816,1041976,1042143,1042305,1042472,1042644,1042819,1042995,1043173,1043348,1043521,1043691,1043856,1044017,1044179,1044342,1044511,1044688,1044866,1045046,1045234,1045420,1045610,1045804,1045993,1046175,1046359,1046537,1046714,1046890,1047063,1047233,1047398,1047563,1047728,1047892,1048057,1048222,1048392,1048559,1048725,1048890,1049055,1049221,1049386,1049552,1049720,1049890,1050063,1050232,1050405,1050575,1050745,1050915,1051082,1051249,1051418,1051591,1051763,1051935,1052106,1052276,1052446,1052618,1052788,1052956,1053125,1053294,1053462,1053627,1053793,1053956,1054118,1054279,1054437,1054595,1054756,1054916,1055075,1055234,1055395,1055555,1055715,1055871,1056027,1056182,1056336,1056489,1056642,1056793,1056945,1057096,1057248,1057397,1057544,1057689,1057736,1057837,1057984,1058130,1058278,1058437,1058646,1058836,1059013,1059185,1059350,1059511,1059671,1059826,1059984,1060138,1060294,1060460,1060628,1060806,1060986,1061164,1061338,1061525,1061742,1061955,1062154,1062349,1062535,1062717,1062892,1063057,1063218,1063380,1063541,1063705,1063876,1064047,1064219,1064410,1064602,1064792,1064973,1065157,1065333,1065505,1065669,1065833,1065996,1066159,1066327,1066497,1066666,1066833,1067007,1067181,1067353,1067522,1067696,1067873,1068051,1068232,1068407,1068585,1068760,1068931,1069098,1069269,1069442,1069617,1069793,1069967,1070144,1070322,1070499,1070672,1070849,1071024,1071201,1071374,1071550,1071727,1071904,1072082,1072263,1072440,1072618,1072795,1072971,1073146,1073322,1073500,1073676,1073850,1074022,1074188,1074355,1074517,1074677,1074837,1074999,1075163,1075327,1075492,1075654,1075821,1075987,1076152,1076317,1076482,1076647,1076780,1076813,1076977,1077145,1077310,1077471,1077634,1077803,1077970,1078135,1078305,1078472,1078635,1078795,1078953,1079115,1079275,1079433,1079599,1079763,1079926,1080087,1080248,1080411,1080570,1080731,1080896,1081060,1081227,1081398,1081571,1081746,1081913,1082079,1082243,1082404,1082563,1082722,1082882,1083042,1083203,1083362,1083522,1083684,1083846,1084007,1084166,1084328,1084494,1084658,1084819,1084988,1085165,1085340,1085514,1085687,1085854,1086016,1086178,1086342,1086509,1086680,1086847,1087020,1087188,1087357,1087530,1087570,1087702,1088034,1088202,1088370,1088486,1088721,1088895,1089067,1089242,1089415,1089589,1089763,1089935,1090105,1090279,1090448,1090617,1090781,1090942,1091100,1091258,1091414,1091568,1091721,1091885,1092046,1092210,1092380,1092551,1092727,1092898,1093068,1093240,1093412,1093586,1093757,1093931,1094100,1094272,1094445,1094620,1094795,1094973,1095155,1095336,1095517,1095694,1095864,1096036,1096205,1096371,1096540,1096714,1096885,1097059,1097235,1097415,1097591,1097765,1097939,1098113,1098285,1098457,1098628,1098797,1098960,1099119,1099276,1099431,1099586,1099742,1099907,1100076,1100245,1100418,1100589,1100758,1100924,1101082,1101240,1101396,1101557,1101720,1101888,1102056,1102226,1102397,1102567,1102738,1102907,1103071,1103230,1103389,1103544,1103696,1103847,1103998,1104152,1104306,1104463,1104622,1104785,1104951,1105122,1105294,1105463,1105633,1105798,1105964,1106130,1106302,1106472,1106642,1106808,1106977,1107146,1107312,1107481,1107651,1107821,1107988,1108155,1108326,1108498,1108670,1108843,1109012,1109182,1109353,1109522,1109690,1109856,1110022,1110190,1110360,1110525,1110691,1110860,1111028,1111196,1111361,1111527,1111693,1111859,1112022,1112183,1112345,1112507,1112667,1112828,1112988,1113152,1113312,1113479,1113647,1113814,1113982,1114148,1114313,1114477,1114639,1114798,1114959,1115123,1115293,1115465,1115637,1115803,1115973,1116147,1116324,1116498,1116675,1116855,1117039,1117214,1117392,1117570,1117746,1117916,1118083,1118245,1118410,1118572,1118737,1118907,1119079,1119245,1119414,1119584,1119613,1119753,1119922,1120089,1120255,1120421,1120582,1120748,1120915,1121087,1121259,1121431,1121604,1121770,1121942,1122117,1122292,1122471,1122655,1122844,1123032,1123217,1123397,1123580,1123764,1123940,1124117,1124298,1124475,1124649,1124826,1125006,1125187,1125368,1125561,1125760,1125948,1126137,1126328,1126515,1126699,1126888,1127081,1127268,1127455,1127636,1127813,1127992,1128173,1128349,1128375,1128525,1128702,1128878,1129052,1129227,1129400,1129572,1129742,1129911,1130079,1130243,1130408,1130573,1130737,1130902,1131066,1131229,1131392,1131554,1131716,1131873,1132032,1132188,1132342,1132496,1132648,1132799,1132950,1133101,1133255,1133409,1133564,1133719,1133875,1134030,1134185,1134340,1134496,1134648,1134802,1134956,1135111,1135267,1135421,1135577,1135737,1135899,1136063,1136225,1136389,1136552,1136716,1136879,1137040,1137203,1137363,1137524,1137683,1137841,1138002,1138164,1138333,1138501,1138668,1138830,1138994,1139154,1139313,1139479,1139640,1139799,1139957,1140114,1140273,1140436,1140591,1140747,1140905,1141063,1141221,1141378,1141537,1141697,1141858,1142019,1142180,1142342,1142506,1142669,1142833,1143001,1143173,1143345,1143511,1143677,1143842,1144002,1144160,1144315,1144468,1144611,1144652,1144784,1144941,1145105,1145275,1145452,1145630,1145802,1145977,1146154,1146329,1146500,1146671,1146846,1147027,1147213,1147387,1147560,1147730,1147899,1148069,1148241,1148415,1148590,1148762,1148935,1149112,1149290,1149464,1149642,1149824,1150010,1150189,1150366,1150544,1150719,1150893,1151071,1151250,1151428,1151603,1151777,1151949,1152117,1152287,1152458,1152626,1152796,1152969,1153143,1153315,1153489,1153662,1153834,1154003,1154176,1154349,1154518,1154688,1154855,1155024,1155197,1155367,1155535,1155706,1155877,1156047,1156214,1156376,1156538,1156699,1156858,1157014,1157169,1157321,1157472,1157622,1157773,1157926,1158085,1158241,1158401,1158566,1158736,1158904,1159073,1159243,1159416,1159587,1159755,1159927,1160096,1160266,1160432,1160602,1160772,1160941,1161107,1161277,1161447,1161619,1161787,1161958,1162128,1162300,1162468,1162634,1162801,1162962,1163119,1163275,1163431,1163587,1163895,1164048,1164201,1164355,1164509,1164663,1164819,1164974,1165135,1165296,1165458,1165620,1165779,1165934,1166091,1166247,1166402,1166557,1166712,1166867,1167025,1167185,1167348,1167511,1167670,1167827,1167985,1168144,1168301,1168458,1168611,1168761,1168912,1169063,1169214,1169365,1169517,1169671,1169826,1169985,1170142,1170297,1170451,1170605,1170760,1170916,1171074,1171229,1171385,1171544,1171701,1171859,1172016,1172175,1172339,1172503,1172664,1172827,1172993,1173160,1173326,1173494,1173663,1173832,1174000,1174169,1174342,1174515,1174686,1174857,1175029,1175201,1175375,1175547,1175715,1175881,1176042,1176197,1176351,1176501,1176651,1176799,1176949,1177111,1177283,1177453,1177625,1177802,1177981,1178154,1178325,1178492,1178660,1178824,1178989,1179153,1179321,1179485,1179645,1179808,1179969,1180126,1180284,1180443,1180604,1180767,1180927,1181088,1181255,1181419,1181591,1181765,1181939,1182111,1182280,1182447,1182610,1182765,1182918,1183072,1183230,1183393,1183566,1183743,1183914,1184090,1184274,1184459,1184660,1184867,1185069,1185278,1185484,1185864,1186052,1186234,1186418,1186606,1186796,1186990,1187184,1187377,1187562,1187747,1187933,1188117,1188300,1188485,1188668,1188843,1189016,1189188,1189356,1189521,1189682,1189842,1190000,1190159,1190325,1190495,1190667,1190837,1191009,1191186,1191375,1191568,1191749,1191929,1192110,1192291,1192468,1192643,1192815,1192982,1193149,1193322,1193497,1193672,1193849,1194030,1194213,1194391,1194567,1194741,1194913,1195082,1195249,1195417,1195586,1195754,1195924,1196097,1196271,1196442,1196610,1196775,1196940,1197103,1197267,1197436,1197602,1197766,1197931,1198096,1198262,1198425,1198591,1198758,1198926,1199092,1199258,1199422,1199585,1199749,1199914,1200078,1200248,1200414,1200581,1200748,1200912,1201073,1201238,1201407,1201573,1201737,1201904,1202069,1202229,1202391,1202555,1202718,1202879,1203042,1203202,1203361,1203522,1203684,1203847,1204017,1204191,1204369,1204544,1204716,1204886,1205060,1205234,1205406,1205571,1205739,1205908,1206078,1206244,1206412,1206584,1206757,1206929,1207097,1207265,1207430,1207598,1207765,1207935,1208101,1208268,1208437,1208608,1208779,1208945,1209112,1209279,1209446,1209611,1209776,1209940,1210106,1210275,1210444,1210609,1210776,1210943,1211107,1211270,1211432,1211594,1211754,1211913,1212070,1212226,1212383,1212541,1212699,1212858,1213015,1213174,1213339,1213508,1213567,1213680,1213848,1213903,1214016,1214186,1214356,1214399,1214526,1214695,1214866,1215035,1215203,1215373,1215541,1215704,1215868,1215979,1216037,1216210,1216385,1216553,1216724,1216894,1217067,1217241,1217411,1217584,1217757,1217930,1218099,1218264,1218430,1218596,1218758,1218919,1219082,1219245,1219414,1219584,1219750,1219917,1220084,1220250,1220419,1220585,1220746,1220903,1221059,1221225,1221388,1221548,1221708,1221866,1222022,1222176,1222328,1222482,1222638,1222797,1222963,1223126,1223293,1223466,1223644,1223817,1223984,1224148,1224318,1224500,1224678,1224852,1225024,1225195,1225362,1225525,1225686,1225848,1226006,1226164,1226306,1226324,1226485,1226645,1226803,1226957,1227114,1227285,1227373,1227452,1227627,1227801,1227969,1228141,1228309,1228476,1228662,1228749,1228774,1228810,1228975,1229135,1229297,1229456,1229612,1229767,1229923,1230079,1230235,1230396,1230558,1230719,1230877,1231037,1231197,1231353,1231511,1231671,1231831,1231992,1232151,1232313,1232473,1232633,1232790,1232949,1233108,1233268,1233431,1233595,1233761,1233925,1234091,1234256,1234419,1234579,1234736,1234891,1235043,1235198,1235353,1235509,1235671,1235831,1235994,1236162,1236329,1236417,1236494,1236658,1236820,1236980,1237139,1237302,1237447,1237629,1237790,1237962,1238139,1238325,1238507,1238593,1238655,1238687,1238866,1239044,1239215,1239252,1239380,1239545,1239707,1239865,1240026,1240189,1240210,1240317,1240356,1240524,1240692,1240862,1240962,1240974,1241029,1241197,1241363,1241529,1241693,1241856,1242016,1242178,1242341,1242501,1242658,1242816,1242978,1243145,1243322,1243508,1243700,1243884,1244067,1244254,1244446,1244639,1244826,1245011,1245191,1245365,1245536,1245703,1245868,1246030,1246192,1246356,1246521,1246686,1246850,1247015,1247182,1247259,1247349,1247514,1247563,1247680,1247781,1248001,1248158,1248311,1248461,1248611,1248761,1248913,1249070,1249228,1249390,1249549,1249710,1249872,1250037,1250203,1250373,1250552,1250730,1250907,1251093,1251283,1251474,1251660,1251850,1252043,1252231,1252418,1252605,1252785,1252971,1253156,1253338,1253522,1253706,1253892,1254078,1254263,1254445,1254625,1254800,1254968,1255136,1255299,1255462,1255623,1255793,1255968,1256139,1256316,1256499,1256688,1256872,1257052,1257237,1257422,1257609,1257793,1257971,1258146,1258322,1258498,1258675,1258847,1259023,1259201,1259377,1259546,1259714,1259883,1260049,1260217,1260388,1260563,1260736,1260910,1260983,1261086,1261114,1261261,1261434,1261609,1261789,1261968,1262141,1262317,1262487,1262658,1262826,1262902,1262991,1263152,1263315,1263475,1263634,1263791,1263948,1264105,1264261,1264298,1264417,1264574,1264734,1264893,1265056,1265228,1265405,1265581,1265759,1265936,1266110,1266283,1266454,1266624,1266793,1266961,1267128,1267294,1267458,1267620,1267782,1267944,1268107,1268271,1268433,1268596,1268763,1268927,1269093,1269256,1269416,1269575,1269732,1269888,1270045,1270201,1270353,1270506,1270658,1270808,1270958,1271107,1271257,1271407,1271559,1271715,1271868,1272025,1272185,1272344,1272501,1272661,1272821,1272978,1273138,1273297,1273451,1273604,1273756,1273907,1274061,1274217,1274374,1274530,1274687,1274843,1274997,1275151,1275306,1275461,1275616,1275777,1275940,1276104,1276270,1276437,1276533,1276607,1276658,1276778,1276951,1277119,1277287,1277454,1277623,1277789,1277955,1278119,1278284,1278451,1278620,1278785,1278948,1279115,1279278,1279438,1279598,1279761,1279922,1280082,1280239,1280395,1280549,1280707,1280865,1281025,1281186,1281352,1281516,1281682,1281849,1282016,1282184,1282347,1282508,1282670,1282830,1282993,1283159,1283325,1283492,1283657,1283820,1283980,1284139,1284294,1284451,1284609,1284770,1284932,1285091,1285253,1285417,1285582,1285751,1285915,1286082,1286254,1286427,1286594,1286765,1286933,1287100,1287266,1287431,1287599,1287767,1287941,1288115,1288290,1288467,1288512,1288646,1288671,1288825,1289006,1289182,1289266,1289306,1289479,1289539,1289720,1289897,1290074,1290257,1290441,1290624,1290810,1290996,1291182,1291363,1291546,1291727,1291911,1292089,1292268,1292449,1292625,1292799,1292974,1293151,1293328,1293500,1293672,1293844,1294015,1294182,1294351,1294521,1294690,1294862,1295030,1295199,1295369,1295539,1295708,1295874,1296043,1296213,1296384,1296551,1296723,1296900,1297077,1297253,1297425,1297598,1297769,1297936,1298098,1298255,1298410,1298580,1298761,1298937,1299112,1299282,1299451,1299613,1299771,1299928,1300085,1300244,1300405,1300562,1300719,1300877,1301034,1301191,1301345,1301498,1301650,1301807,1301967,1302129,1302291,1302454,1302615,1302775,1302935,1303096,1303254,1303412,1303570,1303725,1303875,1304023,1304170,1304319,1304468,1304620,1304780,1304933,1305089,1305249,1305413,1305574,1305742,1305910,1306080,1306249,1306421,1306592,1306759,1306926,1307092,1307258,1307421,1307584,1307747,1307908,1308069,1308232,1308400,1308568,1308734,1308900,1309062,1309220,1309378,1309536,1309694,1309849,1310003,1310160,1310319,1310479,1310642,1310809,1310975,1311139,1311305,1311471,1311633,1311793,1311952,1312079,1312111,1312268,1312423,1312579,1312736,1312895,1313055,1313216,1313378,1313629,1313697,1313859,1314022,1314183,1314346,1314506,1314667,1314829,1314994,1315169,1315323,1315490,1315661,1315830,1316001,1316170,1316336,1316501,1316665,1316832,1316997,1317164,1317334,1317505,1317674,1317845,1317875,1318016,1318182,1318349,1318515,1318681,1318845,1319006,1319168,1319325,1319482,1319637,1319790,1319943,1320094,1320243,1320392,1320541,1320690,1320842,1320992,1321144,1321295,1321445,1321595,1321746,1321898,1322049,1322200,1322355,1322513,1322672,1322830,1322989,1323149,1323309,1323467,1323624,1323780,1323934,1324088,1324242,1324399,1324558,1324715,1324871,1325027,1325180,1325331,1325481,1325633,1325718,1325782,1325928,1326078,1326231,1326398,1326573,1326763,1326961,1327161,1327347,1327535,1327717,1327893,1328068,1328247,1328428,1328604,1328780,1328956,1329126,1329167,1329290,1329452,1329610,1329769,1329927,1330084,1330240,1330397,1330558,1330719,1330843,1331038,1331202,1331365,1331525,1331685,1331849,1332016,1332186,1332358,1332525,1332694,1332864,1333034,1333198,1333362,1333532,1333707,1333884,1334055,1334228,1334406,1334585,1334759,1334933,1335105,1335272,1335433,1335595,1335759,1335922,1336083,1336246,1336415,1336586,1336762,1336936,1337111,1337286,1337466,1337643,1337814,1337987,1338157,1338328,1338497,1338669,1338844,1339018,1339189,1339363,1339539,1339713,1339884,1340058,1340233,1340404,1340572,1340742,1340910,1341080,1341246,1341416,1341589,1341762,1341933,1342104,1342279,1342456,1342635,1342807,1342979,1343153,1343331,1343508,1343689,1343877,1344066,1344249,1344423,1344596,1344764,1344928,1345102,1345278,1345458,1345638,1345824,1346008,1346190,1346368,1346546,1346659,1346873,1347033,1347192,1347351,1347513,1347676,1347841,1348008,1348174,1348258,1348349,1348521,1348691,1348859,1349029,1349195,1349304,1349359,1349524,1349687,1349850,1350014,1350182,1350352,1350519,1350692,1350867,1351041,1351214,1351383,1351550,1351718,1351885,1352061,1352243,1352415,1352584,1352752,1352916,1353078,1353240,1353404,1353572,1353746,1353917,1354093,1354194,1354270,1354443,1354618,1354788,1354955,1355120,1355281,1355445,1355606,1355768,1355937,1356102,1356267,1356440,1356620,1356798,1356982,1357167,1357348,1357528,1357707,1357884,1358062,1358237,1358413,1358589,1358770,1358953,1359130,1359312,1359492,1359668,1359843,1359874,1360020,1360200,1360376,1360552,1360733,1360918,1361096,1361270,1361444,1361616,1361782,1361947,1362110,1362271,1362430,1362588,1362744,1362899,1363056,1363213,1363377,1363543,1363713,1363878,1364045,1364213,1364380,1364544,1364706,1364868,1365029,1365190,1365349,1365511,1365671,1365831,1365989,1366145,1366300,1366453,1366607,1366762,1366917,1367073,1367226,1367386,1367550,1367718,1367884,1368055,1368227,1368397,1368568,1368737,1368905,1369072,1369235,1369397,1369557,1369712,1369867,1370020,1370171,1370321,1370470,1370629,1370795,1370958,1371123,1371291,1371456,1371620,1371784,1371946,1372106,1372269,1372434,1372599,1372766,1372933,1373262,1373426,1373589,1373753,1373917,1374078,1374237,1374393,1374544,1374695,1374844,1374988,1375135,1375284,1375435,1375592,1375747,1375905,1376065,1376226,1376387,1376547,1376710,1376873,1377034,1377190,1377347,1377505,1377661,1377816,1377971,1378127,1378282,1378438,1378591,1378742,1378893,1379041,1379188,1379333,1379479,1379628,1379777,1379932,1380091,1380250,1380409,1380570,1380736,1380901,1381063,1381221,1381376,1381534,1381690,1381853,1382014,1382174,1382335,1382496,1382657,1382823,1382994,1383165,1383334,1383502,1383669,1383833,1383997,1384160,1384321,1384350,1384483,1384642,1384801,1384958,1385113,1385267,1385422,1385577,1385734,1385888,1386043,1386202,1386366,1386530,1386699,1386877,1387057,1387233,1387408,1387587,1387764,1387936,1388109,1388284,1388457,1388627,1388800,1388973,1389147,1389314,1389479,1389647,1389809,1389978,1390148,1390318,1390488,1390658,1390831,1391002,1391175,1391344,1391513,1391679,1391840,1391996,1392150,1392300,1392449,1392600,1392751,1392900,1393050,1393200,1393354,1393512,1393670,1393832,1393996,1394162,1394327,1394494,1394665,1394837,1395003,1395169,1395336,1395503,1395669,1395836,1396006,1396176,1396344,1396512,1396684,1396857,1397021,1397187,1397355,1397520,1397691,1397869,1398043,1398216,1398385,1398552,1398715,1398819,1398873,1399037,1399202,1399363,1399532,1399698,1399863,1400030,1400202,1400376,1400539,1400710,1400877,1401045,1401212,1401370,1401530,1401687,1401844,1402001,1402164,1402330,1402498,1402663,1402829,1402998,1403166,1403328,1403492,1403655,1403817,1404137,1404218,1404294,1404449,1404558,1404608,1404767,1404927,1405083,1405238,1405392,1405545,1405697,1405849,1406002,1406159,1406317,1406475,1406637,1406802,1406969,1407133,1407299,1407463,1407628,1407791,1407955,1408119,1408279,1408438,1408596,1408753,1408911,1409068,1409226,1409380,1409533,1409686,1409838,1409990,1410141,1410291,1410441,1410591,1410743,1410896,1411050,1411201,1411352,1411801,1411949,1412098,1412393,1412493,1412710,1412875,1412994,1413038,1413205,1413382,1413559,1413734,1413906,1414076,1414250,1414421,1414589,1414759,1414936,1415118,1415305,1415491,1415669,1415847,1416024,1416200,1416372,1416534,1416698,1416873,1417051,1417250,1417389,1417652,1417851,1418041,1418226,1418414,1418599,1418780,1418960,1419134,1419309,1419484,1419656,1419826,1419993,1420157,1420316,1420477,1420640,1420804,1420974,1421146,1421313,1421486,1421657,1421827,1421999,1422173,1422342,1422507,1422677,1422843,1423005,1423171,1423341,1423514,1423683,1423858,1424034,1424208,1424381,1424555,1424725,1424892,1425059,1425228,1425397,1425564,1425735,1425907,1426077,1426246,1426410,1426570,1426730,1426895,1427097,1427199,1427449,1427620,1427789,1427956,1428124,1428289,1428449,1428611,1428770,1428933,1429095,1429258,1429421,1429585,1429751,1429917,1430085,1430252,1430420,1430587,1430753,1430921,1431092,1431262,1431432,1431601,1431771,1431939,1432103,1432267,1432436,1432605,1432777,1432945,1433112,1433278,1433441,1433608,1433776,1433944,1434109,1434276,1434441,1434604,1434763,1434923,1435083,1435241,1435398,1435558,1435718,1435879,1436038,1436198,1436362,1436528,1436694,1436856,1437020,1437183,1437344,1437503,1437661,1437820,1437980,1438137,1438296,1438454,1438612,1438767,1438924,1439079,1439235,1439391,1439549,1439704,1439859,1440013,1440169,1440325,1440482,1440639,1440795,1440827,1440951,1441107,1441262,1441419,1441577,1441732,1441885,1442039,1442192,1442348,1442502,1442657,1442814,1442970,1443125,1443280,1443435,1443590,1443745,1443898,1444053,1444207,1444359,1444511,1444662,1444813,1444964,1445116,1445267,1445418,1445570,1445725,1445879,1446031,1446185,1446341,1446496,1446651,1446805,1446960,1447114,1447265,1447416,1447566,1447717,1447870,1448024,1448176,1448328,1448480,1448633,1448788,1448944,1449101,1449257,1449413,1449571,1449729,1449885,1450042,1450198,1450353,1450508,1450664,1450819,1450975,1451132,1451289,1451448,1451608,1451767,1451924,1452081,1452242,1452407,1452572,1452735,1452898,1453062,1453226,1453388,1453548,1453709,1453870,1454031,1454188,1454307,1454346,1454503,1454659,1454815,1454973,1455130,1455286,1455442,1455597,1455751,1455905,1456060,1456215,1456371,1456527,1456687,1456846,1457004,1457163,1457320,1457476,1457630,1457780,1457931,1458082,1458233,1458385,1458536,1458688,1458842,1458996,1459152,1459305,1459461,1459619,1459776,1459933,1460091,1460250,1460408,1460565,1460723,1460879,1461032,1461185,1461334,1461485,1461633,1461782,1461930,1462078,1462228,1462377,1462526,1462675,1462822,1462967,1463111,1463254,1463399,1463544,1463691,1463838,1463984,1464129,1464275,1464423,1464717,1464865,1465013,1465162,1465313,1465463,1465614,1465697,1465825,1465915,1466066,1466216,1466368,1466519,1466669,1466818,1466968,1467120,1467271,1467422,1467573,1467725,1467761,1467877,1468026,1468178,1468332,1468489,1468645,1468802,1468964,1469126,1469296,1469462,1469626,1469794,1469963,1470130,1470294,1470460,1470628,1470798,1470962,1471123,1471284,1471444,1471607,1471769,1471929,1472090,1472253,1472418,1472581,1472743,1472906,1473068,1473122,1473230,1473390,1473551,1473712,1473871,1474034,1474195,1474358,1474518,1474684,1474714,1474849,1475013,1475175,1475337,1475498,1475662,1475824,1475989,1476155,1476476,1476639,1476805,1476985,1477156,1477331,1477504,1477674,1477853,1478037,1478230,1478416,1478605,1478786,1478960,1479135,1479307,1479472,1479635,1479798,1479972,1480152,1480291,1480333,1480504,1480674,1480840,1481002,1481162,1481318,1481479,1481642,1481810,1481978,1482145,1482317,1482487,1482655,1482816,1482980,1483145,1483319,1483669,1483862,1484056,1484256,1484459,1484656,1484843,1485030,1485212,1485387,1485559,1485732,1485906,1486080,1486255,1486423,1486586,1486747,1486904,1487060,1487216,1487372,1487525,1487679,1487831,1487982,1488132,1488281,1488429,1488581,1488738,1488894,1488993,1489045,1489273,1489344,1489489,1489636,1489786,1489945,1490112,1490275,1490440,1490606,1490774,1490939,1491106,1491281,1491457,1491626,1491792,1491962,1492137,1492309,1492477,1492643,1492808,1492972,1493138,1493305,1493469,1493635,1493801,1493966,1494130,1494290,1494447,1494604,1494757,1494907,1495059,1495150,1495363,1495516,1495671,1495829,1495960,1496050,1496145,1496306,1496469,1496640,1496809,1496975,1497140,1497309,1497479,1497644,1497810,1497976,1498141,1498301,1498464,1498627,1498955,1499116,1499272,1499434,1499597,1499766,1499940,1500116,1500290,1500468,1500651,1500827,1501007,1501184,1501354,1501519,1501681,1501869,1502000,1502158,1502265,1502314,1502481,1502642,1502816,1502985,1503317,1503662,1503828,1503998,1504167,1504332,1504494,1504659,1504819,1504977,1505136,1505293,1505450,1505609,1505766,1505925,1506085,1506251,1506438,1506623,1506801,1506994,1507194,1507385,1507573,1507762,1507945,1508130,1508314,1508488,1508662,1508810,1508837,1509008,1509169,1509332,1509494,1509549,1509652,1509688,1509806,1509959,1509994,1510109,1510258,1510405,1510434,1510552,1510695,1510838,1510980,1511120,1511260,1511290,1511407,1511552,1511699,1511843,1511985,1512127,1512266,1512408,1512550,1512693,1512834,1512976,1513122,1513269,1513421,1513573,1513725,1513879,1514037,1514194,1514349,1514502,1514657,1514810,1514960,1515110,1515261,1515413,1515567,1515721,1515871,1516022,1516174,1516326,1516479,1516634,1516786,1516938,1517092,1517246,1517401,1517552,1517704,1517853,1518002,1518150,1518300,1518450,1518600,1518750,1518900,1519050,1519198,1519347,1519494,1519641,1519787,1519932,1520077,1520219,1520358,1520499,1520641,1520787,1520940,1521097,1521247,1521405,1521562,1521723,1521880,1522045,1522217,1522396,1522578,1522757,1522930,1523123,1523328,1523541,1523760,1523950,1524145,1524347,1524549,1524737,1524828,1524931,1525119,1525299,1525482,1525662,1525834,1526002,1526168,1526329,1526484,1526637,1526658,1526790,1526940,1527089,1527236,1527382,1527528,1527674,1527819,1527966,1528113,1528262,1528412,1528563,1528713,1528863,1529018,1529178,1529497,1529655,1529812,1529969,1530124,1530284,1530443,1530603,1530765,1530931,1531097,1531262,1531423,1531583,1531738,1531892,1532046,1532198,1532354,1532513,1532679,1532842,1533010,1533175,1533339,1533502,1533660,1533817,1533971,1534123,1534270,1534416,1534561,1534706,1534850,1534996,1535142,1535288,1535436,1535585,1535733,1535880,1536028,1536176,1536321,1536464,1536609,1536753,1536898,1537043,1537188,1537334,1537478,1537621,1537764,1537907,1538050,1538194,1538341,1538489,1538640,1538794,1538951,1539113,1539281,1539450,1539616,1539785,1539956,1540126,1540293,1540463,1540634,1540807,1540976,1541148,1541320,1541488,1541650,1541812,1541978,1542149,1542320,1542493,1542669,1542851,1543031,1543212,1543397,1543580,1543760,1543940,1544117,1544290,1544466,1544639,1544808,1544972,1545132,1545294,1545457,1545620,1545782,1545950,1546121,1546303,1546484,1546665,1546842,1547021,1547198,1547372,1547542,1547711,1547874,1548032,1548189,1548345,1548501,1548655,1548811,1548967,1549123,1549279,1549436,1549596,1549756,1549915,1550081,1550246,1550408,1550570,1550733,1550893,1551054,1551220,1551384,1551544,1551703,1551862,1552020,1552181,1552343,1552507,1552670,1552835,1553003,1553173,1553338,1553499,1553661,1553821,1553978,1554135,1554295,1554454,1554613,1554773,1554934,1555096,1555256,1555417,1555576,1555734,1555891,1556047,1556204,1556361,1556515,1556667,1556820,1556972,1557123,1557276,1557429,1557583,1557736,1557890,1558044,1558199,1558254,1558350,1558504,1558655,1558806,1558954,1559104,1559254,1559305,1559433,1559700,1559850,1560000,1560145,1560295,1560444,1560594,1560744,1560896,1561050,1561204,1561357,1561510,1561662,1561815,1561967,1562119,1562274,1562428,1562590,1562753,1562917,1563079,1563245,1563413,1563582,1563752,1563915,1564075,1564236,1564395,1564555,1564715,1564877,1565036,1565198,1565358,1565515,1565672,1565827,1565987,1566151,1566314,1566474,1566636,1566800,1566962,1567124,1567285,1567449,1567613,1567778,1567942,1568101,1568265,1568429,1568592,1568749,1568907,1569065,1569222,1569379,1569537,1569694,1569853,1570017,1570190,1570365,1570535,1570702,1570869,1571033,1571193,1571348,1571503,1571659,1571812,1571965,1572117,1572266,1572414,1572561,1572705,1572789,1572850,1572995,1573141,1573287,1573435,1573584,1573734,1573883,1574034,1574187,1574341,1574496,1574650,1574807,1574965,1575120,1575279,1575438,1575599,1575757,1575917,1576076,1576172,1576236,1576392,1576546,1576700,1576850,1576999,1577148,1577297,1577448,1577597,1577746,1577895,1578046,1578198,1578351,1578505,1578661,1578820,1578976,1579135,1579295,1579457,1579619,1579780,1579939,1580097,1580255,1580410,1580566,1580722,1580877,1581031,1581186,1581342,1581496,1581648,1581802,1581961,1582118,1582278,1582436,1582595,1582755,1582916,1583073,1583231,1583389,1583546,1583702,1583861,1584019,1584179,1584338,1584497,1584659,1584821,1584981,1585142,1585304,1585463,1585620,1585777,1585936,1586095,1586253,1586410,1586571,1586728,1586886,1587045,1587202,1587358,1587514,1587607,1587669,1587821,1587971,1588119,1588266,1588414,1588564,1588716,1588869,1589022,1589176,1589331,1589485,1589636,1589788,1589941,1590096,1590253,1590414,1590579,1590745,1590908,1591077,1591247,1591418,1591585,1591752,1591919,1592088,1592254,1592419,1592587,1592754,1592918,1593042,1593079,1593241,1593401,1593559,1593718,1593826,1593883,1594049,1594209,1594371,1594534,1594699,1594864,1595033,1595207,1595379,1595547,1595717,1595814,1595884,1596048,1596210,1596379,1596553,1596725,1596898,1597073,1597248,1597421,1597594,1597769,1597945,1598118,1598290,1598461,1598635,1598805,1598976,1599150,1599324,1599496,1599666,1599835,1600001,1600161,1600320,1600480,1600642,1600799,1600957,1601116,1601277,1601440,1601609,1601773,1601940,1602106,1602268,1602431,1602593,1602758,1602925,1603096,1603125,1603264,1603433,1603607,1603784,1603960,1604132,1604304,1604473,1604639,1604804,1604970,1605134,1605298,1605461,1605628,1605797,1605969,1606137,1606307,1606478,1606647,1606815,1606987,1607155,1607322,1607487,1607653,1607816,1607975,1608135,1608293,1608380,1608449,1608608,1608767,1608930,1609102,1609273,1609441,1609612,1609788,1609961,1610131,1610296,1610459,1610618,1610772,1610925,1611080,1611237,1611400,1611567,1611731,1611895,1612063,1612232,1612399,1612568,1612741,1612915,1613086,1613253,1613420,1613584,1613747,1613909,1614074,1614242,1614411,1614582,1614753,1614927,1615106,1615280,1615450,1615622,1615795,1615967,1616136,1616301,1616465,1616626,1616784,1616942,1617103,1617266,1617431,1617597,1617760,1617924,1618090,1618254,1618414,1618575,1618734,1618892,1619048,1619209,1619372,1619536,1619703,1619867,1620034,1620200,1620363,1620522,1620680,1620835,1620987,1621139,1621293,1621450,1621610,1621772,1621933,1622095,1622259,1622422,1622583,1622743,1622854,1623063,1623220,1623374,1623530,1623685,1623842,1623999,1624154,1624309,1624465,1624618,1624771,1624923,1625075,1625229,1625380,1625531,1625683,1625835,1625985,1626136,1626317,1626443,1626598,1626751,1626906,1627059,1627212,1627363,1627514,1627661,1627809,1627957,1628104,1628253,1628402,1628551,1628699,1628848,1628999,1629151,1629304,1629459,1629613,1629769,1629920,1630073,1630224,1630375,1630526,1630677,1630828,1630978,1631128,1631277,1631427,1631576,1631726,1631878,1632028,1632328,1632477,1632629,1632715,1632755,1632780,1632933,1633087,1633239,1633393,1633547,1633700,1633854,1634004,1634154,1634304,1634452,1634599,1634746,1634896,1635047,1635199,1635349,1635499,1635647,1635794,1635939,1636089,1636243,1636395,1636543,1636620,1636833,1636976,1637119,1637263,1637407,1637550,1637694,1637836,1637978,1638122,1638265,1638408,1638551,1638696,1638841,1638985,1639130,1639277,1639424,1639485,1639571,1639713,1639858,1640002,1640144,1640287,1640429,1640572,1640715,1640861,1641009,1641156,1641308,1641457,1641607,1641757,1641906,1642055,1642202,1642349,1642496,1642641,1642789,1642938,1643087,1643233,1643381,1643529,1643678,1643824,1643971,1644119,1644269,1644419,1644570,1644720,1644872,1645024,1645176,1645326,1645477,1645629,1645781,1645931,1646081,1646231,1646379,1646527,1646672,1646819,1646963,1647103,1647248,1647396,1647553,1647722,1647906,1648092,1648274,1648453,1648623,1648788,1648957,1649120,1649279,1649437,1649591,1649744,1649897,1650047,1650194,1650340,1650484,1650628,1650772,1650914,1651057,1651199,1651343,1651489,1651639,1651790,1651940,1652091,1652247,1652402,1652558,1652713,1652867,1653024,1653181,1653338,1653495,1653654,1653813,1653972,1654132,1654292,1654450,1654610,1654770,1654928,1655085,1655243,1655404,1655568,1655735,1655897,1656055,1656214,1656373,1656530,1656685,1656840,1656993,1657147,1657300,1657451,1657604,1657759,1657915,1658072,1658228,1658387,1658545,1658704,1658859,1659017,1659176,1659333,1659488,1659644,1659801,1659962,1660120,1660278,1660437,1660595,1660753,1660909,1661064,1661220,1661372,1661526,1661680,1661836,1661992,1662151,1662309,1662467,1662626,1662789,1662951,1663118,1663282,1663439,1663599,1663758,1663914,1664071,1664232,1664398,1664559,1664716,1664876,1665037,1665196,1665351,1665508,1665667,1665826,1665987,1666150,1666311,1666476,1666639,1666804,1666973,1667143,1667309,1667478,1667648,1667816,1667981,1668146,1668311,1668479,1668648,1668814,1668980,1669149,1669316,1669479,1669644,1669811,1669976,1670141,1670314,1670490,1670665,1670847,1671006,1671172,1671342,1671513,1671694,1671878,1672069,1672359,1672443,1672624,1672799,1672972,1673149,1673325,1673503,1673678,1673850,1674021,1674190,1674360,1674531,1674704,1674874,1675044,1675212,1675382,1675555,1675730,1675903,1676079,1676262,1676449,1676632,1676820,1676849,1677012,1677199,1677390,1677760,1677953,1678142,1678330,1678522,1678718,1678908,1679091,1679272,1679447,1679619,1679787,1679949,1680108,1680265,1680418,1680567,1680714,1680859,1681001,1681141,1681279,1681417,1681553,1681689,1681829,1681966,1682106,1682325,1682686,1682832,1682979,1683130,1683281,1683431,1683581,1683731,1683881,1684032,1684183,1684334,1684485,1684638,1684791,1684944,1685094,1685244,1685395,1685546,1685696,1685846,1685994,1686143,1686291,1686440,1686502,1686589,1686739,1686891,1687042,1687190,1687341,1687490,1687639,1687787,1687934,1688082,1688230,1688379,1688528,1688677,1689119,1689271,1689423,1689574,1689725,1689873,1690021,1690168,1690315,1690465,1690617,1690779,1690940,1691102,1691268,1691440,1691613,1691780,1691944,1692110,1692273,1692432,1692591,1692749,1692908,1693065,1693223,1693382,1693542,1693697,1693855,1694014,1694172,1694330,1694486,1694642,1694797,1694951,1695104,1695258,1695412,1695571,1695735,1695894,1696053,1696207,1696364,1696518,1696674,1696829,1696891,1696987,1697146,1697390,1697469,1697632,1697793,1697958,1698124,1698291,1698460,1698632,1698728,1698807,1698877,1698976,1699319,1699492,1699667,1699837,1700003,1700164,1700323,1700481,1700638,1700796,1700958,1701118,1701278,1701436,1701595,1701753,1701911,1702064,1702222,1702378,1702534,1702694,1702860,1702893,1703024,1703205,1703339,1703496,1703657,1703816,1703975,1704133,1704292,1704451,1704616,1704777,1704945,1705118,1705289,1705456,1705562,1705623,1705789,1705950,1706111,1706272,1706432,1706589,1706743,1706896,1707050,1707203,1707357,1707515,1707675,1707833,1707908,1707994,1708156,1708242,1708474,1708634,1708797,1708965,1709130,1709299,1709472,1709640,1709809,1709978,1710145,1710309,1710474,1710637,1710798,1710959,1711122,1711287,1711451,1711612,1711771,1711929,1712087,1712242,1712398,1712552,1712706,1712859,1713014,1713170,1713325,1713480,1713633,1713786,1713942,1714103,1714263,1714422,1714576,1714731,1714888,1715043,1715198,1715354,1715508,1715664,1715817,1715969,1716119,1716269,1716422,1716574,1716728,1716887,1717045,1717203,1717358,1717516,1717677,1717832,1717990,1718149,1718312,1718640,1718669,1718801,1718957,1719010,1719113,1719268,1719420,1719571,1719723,1720027,1720145,1720166,1720332,1720486,1720642,1720800,1720961,1721123,1721280,1721438,1721599,1721756,1721911,1722068,1722227,1722389,1722551,1722710,1722871,1723032,1723197,1723359,1723522,1723684,1723850,1724018,1724181,1724340,1724499,1724659,1724825,1724989,1725155,1725327,1725504,1725691,1725874,1726053,1726238,1726421,1726602,1726774,1726947,1727118,1727288,1727449,1727607,1727765,1727940,1728106,1728269,1728432,1728594,1728754,1728913,1729070,1729181,1729229,1729392,1729441,1729558,1729674,1729726,1729887,1730055,1730084,1730229,1730405,1730578,1730748,1730916,1731085,1731254,1731420,1731589,1731756,1731921,1732085,1732250,1732413,1732574,1732737,1732895,1733051,1733211,1733371,1733533,1733691,1733851,1734163,1734321,1734407,1734479,1734636,1734789,1734944,1734971,1735098,1735252,1735406,1735560,1735865,1735965,1736017,1736171,1736325,1736478,1736629,1736786,1736942,1737098,1737252,1737410,1737571,1737732,1737896,1738055,1738218,1738381,1738543,1738705,1738864,1739028,1739191,1739354,1739516,1739679,1739845,1740012,1740179,1740342,1740508,1740671,1740834,1740992,1741156,1741316,1741479,1741640,1741803,1741969,1742136,1742306,1742473,1742640,1742806,1742967,1743126,1743282,1743434,1743584,1743734,1743884,1744039,1744199,1744362,1744527,1744692,1744857,1745022,1745190,1745354,1745517,1745681,1745846,1746010,1746172,1746333,1746495,1746661,1746826,1746990,1747154,1747321,1747488,1747654,1747816,1747977,1748140,1748301,1748459,1748615,1748771,1748926,1749084,1749243,1749401,1749564,1749728,1749892,1750055,1750217,1750380,1750543,1750706,1750869,1751031,1751195,1751359,1751520,1751679,1751839,1751999,1752157,1752314,1752469,1752625,1752785,1752944,1753110,1753276,1753443,1753608,1753776,1753942,1754104,1754268,1754434,1754598,1754760,1754924,1755092,1755258,1755425,1755594,1755768,1755933,1756096,1756263,1756426,1756591,1756756,1756929,1757109,1757287,1757465,1757649,1757835,1758018,1758205,1758389,1758565,1758743,1758846,1758876,1758916,1759078,1759167,1759590,1759762,1759980,1760016,1760093,1760256,1760414,1760574,1760737,1760902,1761066,1761231,1761395,1761558,1761722,1761888,1762059,1762230,1762405,1762584,1762767,1762949,1763126,1763309,1763489,1763669,1763842,1764010,1764182,1764315,1764354,1764519,1764686,1764857,1765025,1765186,1765349,1765516,1765681,1765845,1766011,1766181,1766353,1766523,1766688,1766852,1767013,1767168,1767321,1767473,1767622,1767773,1767925,1768080,1768358,1768607,1768779,1768949,1769114,1769277,1769439,1769598,1769761,1769923,1770087,1770249,1770412,1770578,1770740,1770902,1771067,1771229,1771392,1771553,1771715,1771876,1772038,1772198,1772359,1772520,1772677,1772834,1772992,1773148,1773303,1773456,1773608,1773762,1773917,1774072,1774227,1774378,1774528,1774681,1774831,1774981,1775131,1775285,1775439,1775591,1775746,1775903,1776060,1776216,1776373,1776530,1776685,1777079,1777142,1777294,1777443,1777741,1777888,1778035,1778183,1778333,1778485,1778639,1778790,1778942,1779095,1779246,1779393,1779540,1779685,1779827,1779968,1780108,1780248,1780388,1780528,1780668,1780810,1780952,1781097,1781241,1781386,1781532,1781679,1781824,1781971,1782119,1782267,1782413,1782558,1782702,1782847,1782992,1783138,1783285,1783436,1783586,1783737,1783886,1783974,1784030,1784134,1784323,1784469,1784617,1784765,1784915,1785066,1785216,1785365,1785516,1785665,1785812,1785959,1786109,1786261,1786419,1786581,1786745,1786911,1787071,1787230,1787387,1787542,1787693,1787843,1787994,1788145,1788296,1788446,1788598,1788753,1788912,1789079,1789243,1789352,1789408,1789572,1789705,1789734,1789893,1790053,1790210,1790368,1790526,1790681,1790832,1790985,1791138,1791289,1791439,1791589,1791740,1791891,1792041,1792191,1792341,1792491,1792641,1792790,1792938,1793086,1793232,1793377,1793523,1793669,1793817,1793967,1794117,1794265,1794415,1794567,1794719,1794872,1795023,1795176,1795330,1795482,1795630,1795779,1795925,1796070,1796214,1796358,1796505,1796653,1796805,1796958,1797110,1797263,1797415,1797567,1797717,1797866,1798017,1798170,1798323,1798477,1798630,1798782,1798936,1799088,1799239,1799391,1799539,1799686,1799832,1799978,1800126,1800274,1800425,1800577,1800728,1800880,1801033,1801188,1801346,1801500,1801656,1801817,1801975,1802134,1802292,1802452,1802609,1802655,1802745,1802919,1803076,1803230,1803384,1803540,1803692,1803844,1803898,1803998,1804150,1804302,1804456,1804614,1804776,1804934,1805094,1805256,1805422,1805584,1805748,1805915,1805963,1806079,1806236,1806393,1806548,1806700,1806854,1807007,1807159,1807313,1807468,1807621,1807777,1807936,1808097,1808255,1808415,1808577,1808738,1808898,1809061,1809228,1809394,1809561,1809729,1809893,1810055,1810218,1810378,1810538,1810693,1810845,1810997,1811148,1811296,1811444,1811591,1811737,1811883,1812031,1812180,1812330,1812478,1812630,1812782,1812935,1813086,1813237,1813386,1813533,1813680,1813831,1813984,1814138,1814293,1814452,1814609,1814697,1814925,1815086,1815246,1815407,1815566,1815679,1815724,1815882,1816040,1816201,1816358,1816517,1816679,1816842,1817008,1817173,1817340,1817417,1817502,1817663,1817821,1817981,1818140,1818251,1818296,1818453,1818611,1818772,1818933,1818970,1819091,1819251,1819411,1819572,1819729,1819886,1820044,1820202,1820357,1820512,1820668,1820822,1820976,1821129,1821285,1821438,1821590,1821743,1821896,1822057,1822217,1822378,1822544,1822709,1822871,1823035,1823201,1823366,1823531,1823700,1823866,1824026,1824183,1824337,1824486,1824635,1824781,1824925,1825067,1825209,1825349,1825490,1825633,1825778,1825922,1826069,1826215,1826362,1826509,1826655,1826802,1826947,1827090,1827233,1827376,1827523,1827672,1827822,1827972,1828120,1828270,1828422,1828575,1828731,1828882,1829037,1829194,1829351,1829420,1829663,1829821,1829981,1830141,1830298,1830458,1830618,1830775,1830934,1831095,1831254,1831411,1831568,1831722,1831875,1832028,1832180,1832333,1832485,1832634,1832783,1832927,1833068,1833210,1833352,1833497,1833641,1833793,1833945,1834097,1834250,1834401,1834552,1834704,1834854,1835005,1835157,1835185,1835305,1835452,1835534,1835596,1835701,1835738,1835880,1836022,1836167,1836316,1836469,1836623,1836775,1836927,1836967,1837079,1837228,1837288,1837375,1837521,1837667,1837813,1837959,1838108,1838260,1838415,1838570,1838720,1838871,1839023,1839180,1839339,1839498,1839651,1839806,1839960,1840116,1840269,1840428,1840589,1840753,1840925,1841103,1841280,1841461,1841644,1841823,1841997,1842171,1842344,1842512,1842678,1842844,1843009,1843171,1843338,1843507,1843673,1843843,1844013,1844183,1844351,1844518,1844686,1844852,1845174,1845329,1845480,1845628,1845777,1845928,1846083,1846240,1846399,1846555,1846715,1846878,1847043,1847210,1847374,1847538,1847704,1847868,1848030,1848190,1848348,1848506,1848661,1848812,1848960,1849111,1849261,1849411,1849561,1849713,1849867,1850027,1850187,1850351,1850517,1850681,1850843,1851008,1851169,1851327,1851484,1851641,1851800,1851961,1852123,1852283,1852443,1852601,1852757,1852841,1852912,1853069,1853223,1853375,1853526,1853681,1853840,1854001,1854159,1854321,1854483,1854649,1854824,1854992,1855157,1855324,1855493,1855664,1855831,1855997,1856164,1856331,1856496,1856661,1856826,1856994,1857161,1857330,1857492,1857655,1857811,1857814,1857895,1857964,1858112,1858262,1858412,1858562,1858717,1858875,1859044,1859218,1859397,1859571,1859742,1859916,1860087,1860254,1860423,1860591,1860759,1860926,1861015,1861092,1861258,1861423,1861590,1861755,1861924,1862094,1862258,1862417,1862577,1862734,1862884,1863034,1863185,1863337,1863493,1863650,1863750,1863805,1863961,1864118,1864158,1864273,1864426,1864524,1864581,1864733,1864883,1865036,1865187,1865337,1865640,1865794,1865951,1866106,1866262,1866419,1866576,1866733,1866891,1867047,1867200,1867354,1867507,1867660,1867814,1867968,1868124,1868282,1868442,1868603,1868764,1868925,1869082,1869239,1869391,1869474,1869540,1869691,1869844,1869995,1870147,1870304,1870469,1870635,1870803,1870969,1871135,1871299,1871463,1871626,1871786,1871945,1872104,1872265,1872428,1872590,1872748,1872907,1873064,1873223,1873385,1873549,1873714,1873877,1873924,1873985,1874044,1874103,1874208,1874371,1874535,1874698,1874861,1875017,1875175,1875332,1875487,1875642,1875800,1875958,1876117,1876275,1876435,1876594,1876753,1876912,1877069,1877225,1877379,1877530,1877680,1877830,1877981,1878134,1878289,1878443,1878599,1878756,1878916,1879077,1879235,1879396,1879557,1879715,1879871,1880028,1880184,1880341,1880495,1880647,1880799,1880951,1881102,1881255,1881409,1881564,1881720,1881874,1882029,1882183,1882336,1882485,1882636,1882788,1882943,1883096,1883251,1883409,1883569,1883731,1883890,1884049,1884208,1884368,1884521,1884676,1884831,1884985,1885142,1885301,1885460,1885620,1885779,1885939,1886096,1886251,1886407,1886566,1886723,1886912,1887032,1887183,1887333,1887481,1887628,1887777,1887927,1888080,1888233,1888385,1888536,1888687,1888837,1888985,1889131,1889277,1889423,1889570,1889720,1889867,1890017,1890169,1890322,1890478,1890635,1890792,1890954,1891117,1891278,1891435,1891591,1891745,1891899,1892055,1892210,1892371,1892531,1892687,1892845,1893005,1893165,1893329,1893489,1893653,1893819,1893985,1894149,1894316,1894486,1894653,1894816,1894981,1895148,1895316,1895484,1895651,1895818,1895985,1896151,1896317,1896482,1896647,1896808,1896970,1897132,1897289,1897388,1897444,1897595,1897746,1897896,1898047,1898197,1898352,1898511,1898670,1898825,1898987,1899155,1899324,1899492,1899657,1899823,1899985,1900147,1900310,1900473,1900634,1900794,1900954,1901110,1901234,1901266,1901424,1901582,1901738,1901899,1902061,1902225,1902387,1902550,1902712,1902872,1903033,1903194,1903354,1903513,1903671,1903832,1903993,1904154,1904313,1904471,1904626,1904778,1904800,1904927,1904954,1905010,1905078,1905226,1905373,1905525,1905677,1905830,1905990,1906148,1906306,1906469,1906633,1906798,1906963,1907172,1907289,1907446,1907603,1907634,1907915,1908069,1908226,1908389,1908552,1908660,1908876,1909038,1909198,1909359,1909521,1909678,1909837,1909996,1910156,1910316,1910356,1910475,1910633,1910793,1910952,1911111,1911269,1911429,1911600,1911696,1911939,1912103,1912269,1912432,1912594,1912755,1912914,1913073,1913229,1913387,1913543,1913696,1913848,1914001,1914156,1914311,1914466,1914620,1914776,1914935,1915090,1915243,1915393,1915545,1915695,1915843,1915990,1916136,1916283,1916431,1916581,1916736,1916890,1917045,1917199,1917355,1917513,1917672,1917830,1917985,1918141,1918294,1918449,1918604,1918759,1918918,1919076,1919236,1919397,1919555,1919711,1919867,1920023,1920181,1920337,1920494,1920624,1920650,1920803,1920955,1921257,1921410,1921564,1921720,1921763,1921872,1922028,1922186,1922343,1922497,1922654,1922814,1922971,1923131,1923288,1923447,1923608,1923769,1923931,1924089,1924248,1924404,1924558,1924675,1924710,1924782,1924863,1925013,1925164,1925316,1925465,1925620,1925778,1925931,1926081,1926228,1926376,1926521,1926668,1926816,1926965,1927115,1927264,1927416,1927572,1927733,1927898,1928063,1928224,1928385,1928545,1928705,1928868,1929029,1929191,1929354,1929514,1929672,1929828,1929979,1930124,1930272,1930415,1930559,1930701,1930845,1930990,1931138,1931290,1931449,1931605,1931758,1931912,1932067,1932222,1932376,1932525,1932674,1932823,1932969,1933115,1933259,1933282,1933335,1933404,1933550,1933695,1933841,1933989,1934140,1934292,1934443,1934596,1934750,1934904,1935061,1935219,1935377,1935536,1935699,1935861,1936023,1936183,1936344,1936504,1936659,1936814,1936968,1937117,1937266,1937415,1937565,1937717,1937871,1938024,1938179,1938316,1938335,1938489,1938641,1938793,1938943,1939092,1939179,1939243,1939394,1939545,1939696,1939847,1939999,1940152,1940306,1940461,1940616,1940774,1940934,1941094,1941251,1941407,1941566,1941725,1941883,1942039,1942197,1942353,1942508,1942664,1942823,1942984,1943145,1943313,1943459,1943616,1943769,1943919,1944068,1944219,1944369,1944519,1944672,1944750,1944826,1944927,1944978,1945134,1945292,1945448,1945605,1945762,1945821,1945919,1946075,1946231,1946390,1946486,1946552,1946713,1946872,1947030,1947188,1947346,1947502,1947660,1947820,1947980,1948139,1948301,1948466,1948637,1948808,1948978,1949152,1949324,1949495,1949663,1949829,1949991,1950149,1950306,1950462,1950765,1950916,1951067,1951213,1951307,1951363,1951395,1951516,1951670,1951825,1951983,1952144,1952306,1952470,1952632,1952798,1952965,1953131,1953296,1953460,1953622,1953785,1953947,1954107,1954268,1954427,1954587,1954745,1954898,1955052,1955207,1955359,1955510,1955663,1955819,1955978,1956135,1956295,1956457,1956622,1956787,1956951,1957115,1957276,1957437,1957599,1957764,1957932,1958099,1958259,1958418,1958579,1958742,1958906,1959071,1959236,1959402,1959564,1959728,1959890,1960047,1960206,1960363,1960519,1960677,1960835,1960994,1961151,1961311,1961471,1961631,1961785,1961937,1962090,1962241,1962393,1962543,1962693,1962843,1962991,1963142,1963294,1963446,1963597,1963748,1963899,1964049,1964196,1964346,1964495,1964645,1964796,1964947,1965097,1965251,1965406,1965560,1965714,1965871,1966032,1966192,1966354,1966520,1966689,1966856,1967022,1967190,1967356,1967518,1967680,1967841,1968001,1968159,1968316,1968472,1968627,1968778,1968929,1969081,1969233,1969386,1969538,1969692,1969846,1969999,1970153,1970306,1970460,1970617,1970777,1970936,1971097,1971260,1971589,1971753,1971918,1972080,1972241,1972401,1972561,1972721,1972879,1973032,1973185,1973294,1973336,1973483,1973633,1973782,1973935,1974092,1974251,1974409,1974565,1974722,1974879,1975036,1975195,1975358,1975525,1975691,1975856,1976020,1976181,1976338,1976496,1976538,1976650,1976801,1976892,1976949,1977099,1977249,1977405,1977563,1977728,1977895,1978066,1978240,1978413,1978582,1978754,1978925,1979090,1979249,1979405,1979556,1979709,1979860,1980011,1980160,1980311,1980465,1980621,1980775,1980814,1980928,1981078,1981227,1981379,1981542,1981709,1981883,1982052,1982220,1982384,1982552,1982717,1982878,1983039,1983201,1983360,1983519,1983676,1983803,1983835,1983992,1984148,1984304,1984461,1984617,1984770,1984926,1985082,1985238,1985394,1985550,1985705,1985858,1986006,1986155,1986303,1986450,1986574,1986598,1986746,1986893,1987186,1987336,1987485,1987634,1987698,1987781,1987932,1988086,1988242,1988397,1988556,1988718,1988879,1989040,1989197,1989352,1989507,1989659,1989810,1989959,1990027,1990054,1990106,1990249,1990395,1990542,1990693,1990844,1990996,1991153,1991314,1991477,1991636,1991794,1991954,1992112,1992266,1992419,1992571,1992721,1992871,1993021,1993173,1993324,1993473,1993624,1993778,1993939,1994100,1994263,1994425,1994585,1994745,1994903,1995061,1995220,1995377,1995535,1995691,1995846,1996002,1996155,1996303,1996453,1996601,1996750,1996900,1997051,1997202,1997349,1997495,1997638,1997784,1997929,1998074,1998219,1998365,1998510,1998659,1998809,1998959,1999109,1999263,1999419,1999577,1999732,1999887,2000040,2000190,2000337,2000481,2000626,2000770,2000916,2001062,2001210,2001359,2001510,2001658,2001808,2001961,2002117,2002276,2002435,2002590,2002742,2002894,2003042,2003189,2003336,2003482,2003631,2003778,2003924,2004071,2004220,2004369,2004520,2004674,2004829,2004983,2005137,2005288,2005436,2005581,2005728,2005875,2006020,2006164,2006309,2006452,2006598,2006745,2006892,2007037,2007185,2007335,2007485,2007635,2007782,2007932,2008080,2008231,2008381,2008529,2008680,2008831,2008983,2009132,2009280,2009719,2009862,2010005,2010148,2010290,2010433,2010577,2010720,2010865,2011009,2011153,2011295,2011439,2011580,2011723,2011867,2012013,2012158,2012303,2012449,2012596,2012744,2012890,2013041,2013197,2013356,2013517,2013675,2013835,2013994,2014152,2014307,2014460,2014613,2014767,2014920,2015070,2015221,2015372,2015524,2015675,2015824,2015975,2016126,2016275,2016425,2016574,2016721,2016869,2017012,2017157,2017304,2017448,2017591,2017735,2017879,2018022,2018163,2018301,2018440,2018577,2018713,2018849,2018987,2019129,2019275,2019421,2019571,2019724,2019877,2020029,2020179,2020327,2020475,2020621,2020768,2020917,2021066,2021217,2021366,2021518,2021674,2021827,2021982,2022137,2022293,2022453,2022617,2022780,2022936,2023095,2023256,2023421,2023587,2023750,2023920,2024096,2024273,2024445,2024621,2024799,2024971,2025136,2025302,2025465,2025625,2025782,2025941,2026099,2026254,2026409,2026563,2026720,2026874,2026887,2026907,2027056,2027229,2027401,2027571,2027741,2027909,2028073,2028235,2028398,2028569,2028743,2028910,2029068,2029072,2029246,2029416,2029586,2029758,2029931,2030104,2030277,2030451,2030618,2030786,2030949,2031105,2031258,2031407,2031556,2031703,2031844,2031985,2032124,2032265,2032406,2032549,2032633,2032691,2032832,2032975,2033119,2033262,2033407,2033553,2033701,2033847,2033993,2034141,2034286,2034429,2034573,2034716,2034856,2034996,2035136,2035277,2035423,2035488,2035569,2035713,2035860,2036008,2036159,2036311,2036463,2036615,2036772,2036930,2037089,2037247,2037404,2037563,2037724,2037884,2038042,2038204,2038365,2038527,2038687,2038849,2039009,2039166,2039321,2039475,2039629,2039781,2039936,2040093,2040250,2040408,2040569,2040732,2040893,2041056,2041218,2041378,2041535,2041691,2041847,2042002,2042157,2042313,2042354,2042464,2042617,2042771,2042925,2043083,2043245,2043411,2043576,2043742,2043908,2044073,2044237,2044398,2044558,2044718,2044840,2044876,2044988,2045033,2045187,2045338,2045493,2045648,2045803,2045956,2046111,2046267,2046422,2046578,2046731,2046886,2047040,2047193,2047349,2047506,2047665,2047824,2047979,2048137,2048295,2048451,2048606,2048763,2048919,2049077,2049232,2049388,2049545,2049702,2049858,2050012,2050168,2050324,2050480,2050633,2050789,2050946,2051102,2051257,2051412,2051565,2051718,2051869,2052020,2052172,2052324,2052476,2052629,2052778,2052927,2053076,2053225,2053375,2053524,2053674,2053826,2053977,2054126,2054274,2054422,2054570,2054719,2054867,2055017,2055167,2055319,2055471,2055623,2055776,2055928,2056080,2056234,2056386,2056537,2056685,2056831,2056974,2057115,2057255,2057395,2057539,2057686,2057835,2057985,2058132,2058281,2058430,2058582,2058739,2058897,2059049,2059202,2059355,2059507,2059662,2059821,2059980,2060138,2060293,2060446,2060597,2060748,2060898,2061054,2061213,2061377,2061542,2061702,2061864,2062029,2062193,2062300,2062356,2062512,2062668,2062824,2062980,2063141,2063303,2063470,2063634,2063795,2063957,2064121,2064277,2064432,2064586,2064735,2064887,2065037,2065186,2065336,2065489,2065647,2065805,2065959,2066117,2066280,2066442,2066603,2066767,2066941,2067110,2067273,2067431,2067587,2067743,2067898,2068056,2068213,2068374,2068535,2068697,2068855,2069013,2069169,2069325,2069478,2069631,2069782,2069935,2070086,2070234,2070385,2070534,2070683,2070833,2070983,2071135,2071284,2071434,2071585,2071733,2071880,2072027,2072173,2072318,2072462,2072607,2072749,2072891,2073033,2073173,2073313,2073452,2073589,2073728,2073866,2074004,2074143,2074281,2074419,2074557,2074699,2074840,2074978,2075117,2075252,2075389,2075523,2075659,2075795,2075931,2076068,2076206,2076343,2076479,2076616,2076753,2076889,2077025,2077161,2077297,2077432,2077568,2077705,2077843,2077982,2078121,2078260,2078400,2078542,2078576,2078686,2078830,2078865,2078977,2079122,2079270,2079416,2079560,2079704,2079848,2079994,2080141,2080289,2080439,2080589,2080739,2080891,2081043,2081195,2081345,2081496,2081648,2081800,2081951,2082102,2082253,2082405,2082556,2082708,2082863,2083015,2083166,2083317,2083468,2083600,2083764,2083798,2083914,2084060,2084204,2084348,2084493,2084638,2084780,2084923,2085065,2085208,2085349,2085491,2085612,2085701,2085766,2085905,2086045,2086189,2086333,2086482,2086634,2086788,2086942,2087094,2087249,2087403,2087558,2087710,2087862,2088014,2088166,2088316,2088466,2088620,2088776,2088926,2089073,2089168,2089219,2089367,2089509,2089530,2089651,2089796,2089944,2090100,2090259,2090414,2090570,2090725,2090884,2091038,2091193,2091311,2091350,2091501,2091658,2091814,2092085,2092283,2092424,2092600,2092753,2092905,2093057,2093213,2093366,2093521,2093674,2093826,2093979,2094132,2094289,2094450,2094613,2094776,2094937,2095100,2095261,2095422,2095512,2095579,2095734,2095890,2096050,2096208,2096367,2096525,2096688,2096848,2097012,2097181,2097349,2097525,2097704,2097885,2098063,2098240,2098344,2098579,2098747,2098911,2099070,2099227,2099383,2099538,2099693,2099848,2099959,2099998,2100148,2100296,2100445,2100589,2100733,2100878,2101022,2101165,2101311,2101460,2101615,2101770,2101790,2101927,2102092,2102260,2102423,2102585,2102748,2102907,2103063,2103221,2103378,2103533,2103689,2103845,2104002,2104160,2104319,2104481,2104644,2104808,2104969,2105129,2105286,2105437,2105587,2105739,2105890,2106041,2106193,2106347,2106503,2106659,2106815,2106971,2107126,2107278,2107428,2107578,2107727,2107876,2108024,2108170,2108318,2108465,2108612,2108759,2108904,2109049,2109192,2109334,2109438,2109613,2109753,2109894,2110042,2110195,2110349,2110506,2110665,2110822,2110982,2111145,2111308,2111471,2111630,2111785,2111935,2112084,2112230,2112377,2112529,2112679,2112827,2112975,2113126,2113275,2113425,2113577,2113729,2113883,2114039,2114193,2114346,2114497,2114647,2114795,2114942,2115088,2115236,2115385,2115535,2115684,2115835,2115989,2116141,2116293,2116446,2116598,2116750,2116902,2117054,2117209,2117363,2117514,2117665,2117815,2117963,2118112,2118263,2118412,2118563,2118714,2118867,2119020,2119172,2119323,2119473,2119623,2119773,2119922,2120072,2120220,2120366,2120512,2120655,2120798,2120942,2121088,2121237,2121386,2121535,2121686,2121835,2122132,2122279,2122426,2122570,2122715,2122860,2123004,2123147,2123291,2123440,2123591,2123743,2123895,2124049,2124203,2124357,2124509,2124660,2124810,2124957,2125103,2125248,2125392,2125537,2125683,2125830,2125980,2126132,2126284,2126438,2126593,2126748,2126974,2127056,2127210,2127361,2127510,2127658,2127807,2127956,2128102,2128252,2128402,2128556,2128710,2128864,2129018,2129173,2129324,2129477,2129630,2129782,2129935,2130086,2130240,2130396,2130551,2130705,2130859,2131012,2131164,2131315,2131465,2131615,2131764,2131916,2132071,2132226,2132380,2132535,2132690,2132846,2133002,2133107,2133314,2133474,2133565,2133633,2133795,2133955,2134114,2134199,2134273,2134431,2134585,2134739,2134890,2135041,2135191,2135337,2135484,2135628,2135773,2135917,2136061,2136207,2136361,2136519,2136678,2136832,2136989,2137148,2137308,2137467,2137625,2137783,2137939,2138093,2138245,2138395,2138497,2138544,2138691,2138836,2138889,2138981,2139126,2139268,2139408,2139550,2139693,2139840,2139989,2140134,2140285,2140375,2140437,2140589,2140742,2140777,2140899,2141061,2141231,2141398,2141565,2141712,2141895,2142058,2142224,2142390,2142547,2142706,2142860,2143013,2143165,2143317,2143466,2143620,2143772,2143922,2144074,2144226,2144378,2144402,2144527,2144674,2144821,2144969,2145118,2145270,2145421,2145573,2145726,2145878,2145972,2146175,2146322,2146471,2146620,2146772,2146922,2147075,2147228,2147382,2147533,2147682,2147828,2147858,2147971,2148115,2148257,2148399,2148548,2148705,2148869,2149034,2149198,2149364,2149527,2149683,2149839,2149990,2150141,2150295,2150455,2150619,2150781,2150942,2151105,2151270,2151433,2151594,2151754,2151914,2152070,2152229,2152389,2152547,2152708,2152871,2153033,2153196,2153356,2153514,2153668,2153815,2153962,2154109,2154254,2154403,2154553,2154704,2154854,2155005,2155157,2155311,2155463,2155616,2155767,2155915,2156058,2156201,2156343,2156485,2156630,2156775,2156922,2157068,2157215,2157363,2157513,2157665,2157816,2157967,2158116,2158266,2158415,2158565,2158716,2158869,2159020,2159171,2159322,2159475,2159629,2159780,2159929,2160078,2160227,2160378,2160530,2160684,2160839,2160995,2161149,2161305,2161463,2161625,2161789,2161952,2162117,2162282,2162446,2162609,2162769,2162925,2163079,2163230,2163386,2163547,2163705,2163860,2164013,2164164,2164314,2164464,2164615,2164771,2164927,2165084,2165241,2165396,2165554,2165714,2165873,2166033,2166193,2166352,2166506,2166661,2166813,2166963,2167114,2167263,2167410,2167557,2167702,2167847,2167996,2168147,2168297,2168450,2168603,2168756,2168908,2169058,2169205,2169351,2169496,2169641,2169787,2169934,2170080,2170229,2170378,2170530,2170683,2170837,2170992,2171148,2171303,2171460,2171618,2171774,2171930,2172085,2172242,2172398,2172555,2172709,2172864,2173018,2173172,2173325,2173477,2173629,2173779,2173929,2174079,2174229,2174378,2174529,2174679,2174832,2174981,2175133,2175286,2175438,2175592,2175746,2175897,2176047,2176196,2176341,2176486,2176632,2176777,2176921,2177064,2177207,2177347,2177488,2177628,2177767,2177906,2178043,2178179,2178315,2178450,2178585,2178721,2178858,2178995,2179134,2179275,2179417,2179558,2179701,2179844,2179990,2180138,2180288,2180435,2180583,2180731,2180876,2181020,2181162,2181306,2181451,2181596,2181742,2181888,2182034,2182180,2182324,2182471,2182616,2182761,2182904,2183046,2183189,2183332,2183476,2183621,2183768,2183918,2184065,2184212,2184360,2184508,2184654,2184801,2184947,2185094,2185239,2185385,2185532,2185678,2185827,2185972,2186118,2186262,2186405,2186545,2186684,2186822,2186962,2187099,2187239,2187378,2187520,2187665,2187815,2187967,2188130,2188290,2188450,2188609,2188767,2188925,2189078,2189230,2189382,2189533,2189686,2189836,2189985,2190133,2190280,2190425,2190569,2190714,2190862,2191007,2191153,2191298,2191446,2191595,2191742,2191889,2192038,2192187,2192336,2192484,2192634,2192783,2192933,2193082,2193228,2193374,2193516,2193659,2193801,2193942,2194085,2194228,2194373,2194524,2194678,2194829,2194982,2195140,2195294,2195450,2195602,2195755,2195907,2196058,2196146,2196207,2196358,2196508,2196658,2196806,2196955,2197106,2197253,2197402,2197551,2197701,2197852,2198002,2198152,2198303,2198453,2198600,2198747,2198894,2199040,2199183,2199326,2199469,2199609,2199748,2199843,2199887,2200025,2200160,2200295,2200432,2200569,2200708,2200886,2200973,2201128,2201269,2201411,2201555,2201701,2201848,2201995,2202142,2202290,2202438,2202589,2202741,2202889,2203035,2203182,2203330,2203477,2203625,2203776,2203926,2204077,2204227,2204376,2204526,2204676,2204829,2204983,2205140,2205297,2205454,2205613,2205772,2205931,2206085,2206241,2206392,2206543,2206690,2206835,2206981,2207127,2207273,2207422,2207570,2207720,2207872,2208023,2208175,2208326,2208477,2208629,2208778,2208929,2209084,2209237,2209392,2209548,2209703,2209861,2210022,2210182,2210343,2210501,2210658,2210817,2210975,2211131,2211288,2211443,2211599,2211756,2211913,2212070,2212224,2212378,2212532,2212686,2212839,2212990,2213141,2213293,2213445,2213597,2213752,2213912,2214073,2214235,2214392,2214551,2214711,2214871,2215026,2215181,2215338,2215493,2215647,2215805,2215961,2216116,2216272,2216431,2216590,2216748,2216905,2217063,2217221,2217378,2217534,2217690,2217847,2218006,2218165,2218322,2218480,2218637,2218796,2218952,2219108,2219264,2219420,2219574,2219728,2219882,2220036,2220189,2220342,2220497,2220652,2220808,2220961,2221115,2221269,2221422,2221574,2221723,2221873,2222023,2222171,2222320,2222468,2222615,2222764,2222912,2223061,2223209,2223356,2223506,2223658,2223808,2223960,2224109,2224259,2224411,2224565,2224719,2224871,2225023,2225174,2225324,2225471,2225616,2225759,2225901,2226040,2226181,2226325,2226467,2226612,2226757,2226907,2227059,2227213,2227369,2227522,2227676,2227832,2227983,2228138,2228293,2228447,2228604,2228761,2228915,2229068,2229221,2229374,2229525,2229673,2229821,2229968,2230111,2230253,2230396,2230539,2230684,2230829,2230974,2231120,2231266,2231412,2231561,2231712,2231866,2232020,2232173,2232328,2232483,2232636,2232944,2233097,2233249,2233403,2233558,2233709,2233857,2234005,2234153,2234300,2234448,2234600,2234758,2234916,2235078,2235238,2235396,2235554,2235710,2235859,2236009,2236158,2236304,2236454,2236515,2236600,2236746,2236893,2237040,2237124,2237183,2237334,2237480,2237627,2237772,2237918,2238064,2238213,2238365,2238521,2238683,2238844,2239003,2239167,2239332,2239496,2239659,2239822,2239984,2240144,2240304,2240461,2240617,2240773,2240927,2241080,2241232,2241383,2241536,2241684,2241831,2241976,2242122,2242267,2242412,2242556,2242700,2242843,2242986,2243127,2243268,2243409,2243548,2243685,2243821,2243956,2244095,2244238,2244384,2244528,2244670,2244812,2244952,2245091,2245230,2245369,2245509,2245651,2245795,2245939,2246083,2246227,2246303,2246373,2246518,2246663,2246808,2246952,2247037,2247098,2247239,2247383,2247528,2247674,2247821,2247968,2248117,2248265,2248415,2248563,2248710,2248859,2249007,2249155,2249304,2249453,2249599,2249742,2249889,2250032,2250178,2250327,2250477,2250630,2250784,2250937,2251244,2251396,2251546,2251847,2251998,2252149,2252303,2252457,2252613,2252768,2252925,2253080,2253233,2253385,2253536,2253685,2253831,2253978,2254128,2254277,2254427,2254576,2254722,2254867,2255010,2255152,2255295,2255441,2255589,2255739,2255889,2256038,2256187,2256333,2256478,2256622,2256762,2256902,2256927,2257041,2257181,2257322,2257464,2257545,2257606,2257749,2257894,2258037,2258180,2258327,2258472,2258615,2258757,2258899,2259034,2259170,2259305,2259441,2259574,2259708,2259843,2259980,2260118,2260259,2260401,2260542,2260682,2260823,2260964,2261107,2261253,2261401,2261550,2261698,2261844,2261991,2262139,2262287,2262434,2262581,2262729,2262876,2263024,2263169,2263315,2263462,2263609,2263757,2263900,2264045,2264190,2264337,2264482,2264628,2264774,2264921,2265070,2265218,2265369,2265521,2265674,2265827,2265981,2266131,2266282,2266432,2266581,2266731,2266881,2267031,2267183,2267336,2267487,2267639,2267791,2267943,2268089,2268235,2268381,2268527,2268675,2268787,2268820,2268970,2269123,2269274,2269425,2269578,2269732,2269884,2270036,2270186,2270336,2270485,2270630,2270778,2270924,2271071,2271218,2271364,2271513,2271661,2271805,2271953,2272100,2272247,2272394,2272541,2272689,2272836,2272985,2273135,2273287,2273440,2273590,2273741,2273893,2274044,2274193,2274343,2274493,2274644,2274793,2274943,2275094,2275244,2275395,2275546,2275698,2275848,2275998,2276146,2276443,2276598,2276749,2276901,2277053,2277207,2277360,2277512,2277665,2277849,2277927,2278124,2278275,2278425,2278574,2278725,2278872,2279019,2279164,2279308,2279453,2279597,2279740,2279884,2280027,2280171,2280315,2280460,2280605,2280750,2280899,2281048,2281199,2281348,2281497,2281643,2281789,2281933,2282077,2282221,2282364,2282507,2282649,2282793,2282936,2283078,2283222,2283366,2283513,2283658,2283805,2283951,2284097,2284239,2284382,2284527,2284606,2284676,2284827,2284978,2285128,2285278,2285430,2285581,2285730,2285876,2286018,2286159,2286300,2286439,2286577,2286715,2286855,2286995,2287137,2287278,2287421,2287565,2287709,2287853,2287999,2288144,2288289,2288434,2288577,2288719,2288858,2288997,2289270,2289406,2289541,2289679,2289820,2289963,2290108,2290256,2290408,2290566,2290726,2290883,2291039,2291197,2291332,2291356,2291513,2291673,2291835,2291895,2291945,2291994,2292151,2292308,2292465,2292621,2292774,2292951,2293081,2293235,2293389,2293541,2293693,2293846,2294000,2294161,2294326,2294488,2294652,2294815,2294975,2295130,2295283,2295436,2295589,2295746,2295904,2296062,2296221,2296381,2296541,2296702,2296859,2297017,2297173,2297329,2297484,2297641,2297796,2297950,2298104,2298258,2298410,2298561,2298711,2298865,2299017,2299088,2299169,2299321,2299473,2299624,2299774,2299923,2300075,2300227,2300380,2300535,2300692,2300850,2301007,2301164,2301320,2301476,2301628,2301780,2301931,2302079,2302227,2302373,2302521,2302668,2302814,2302960,2303105,2303251,2303397,2303540,2303685,2303829,2303970,2304109,2304250,2304389,2304526,2304663,2304801,2304939,2305079,2305220,2305361,2305503,2305644,2305787,2305928,2306073,2306218,2306364,2306512,2306659,2306805,2306949,2306973,2307092,2307237,2307382,2307526,2307670,2307816,2307963,2308107,2308253,2308400,2308546,2308690,2308833,2308974,2309114,2309256,2309329,2309533,2309675,2309819,2309962,2310104,2310249,2310395,2310540,2310686,2310832,2310977,2311127,2311277,2311426,2311457,2311577,2311735,2311902,2312064,2312222,2312379,2312535,2312691,2312847,2313005,2313161,2313314,2313462,2313613,2313763,2313914,2314063,2314212,2314360,2314510,2314661,2314815,2314973,2315136,2315296,2315449,2315611,2315723,2315771,2315929,2316086,2316241,2316398,2316556,2316714,2316874,2317036,2317202,2317371,2317538,2317704,2317867,2318177,2318326,2318472,2318617,2318763,2318912,2319062,2319364,2319517,2319669,2319821,2319975,2320286,2320444,2320602,2320756,2320913,2321068,2321222,2321372,2321522,2321672,2321820,2321965,2322109,2322252,2322393,2322533,2322671,2322810,2322947,2323086,2323223,2323362,2323764,2323839,2323882,2324028,2324160,2324295,2324430,2324565,2324701,2324838,2324976,2325133,2325214,2325392,2325532,2325673,2325814,2325959,2326108,2326258,2326405,2326552,2326703,2326856,2327012,2327167,2327320,2327475,2327627,2327777,2327928,2328079,2328230,2328382,2328535,2328688,2328842,2328993,2329145,2329295,2329444,2329593,2329740,2329887,2330034,2330181,2330330,2330478,2330625,2330773,2330920,2331067,2331214,2331357,2331502,2331645,2331791,2331935,2332078,2332220,2332358,2332502,2332648,2332791,2332941,2333089,2333240,2333394,2333551,2333711,2333872,2334036,2334201,2334364,2334527,2334690,2334856,2335022,2335187,2335354,2335521,2335688,2335856,2336022,2336186,2336344,2336502,2336656,2336811,2336964,2337120,2337280,2337441,2337606,2337773,2337941,2338112,2338284,2338458,2338631,2338805,2338975,2339143,2339310,2339476,2339642,2339808,2339973,2340137,2340299,2340460,2340621,2340782,2340942,2341102,2341261,2341420,2341579,2341736,2341889,2342044,2342198,2342353,2342508,2342663,2342818,2342975,2343131,2343289,2343443,2343600,2343762,2343924,2344086,2344252,2344420,2344590,2344757,2344926,2345092,2345254,2345418,2345582,2345745,2345907,2346065,2346226,2346386,2346542,2346697,2346853,2347006,2347160,2347314,2347469,2347624,2347777,2347925,2348078,2348385,2348540,2348697,2348858,2349021,2349184,2349347,2349509,2349665,2349819,2349974,2350127,2350283,2350440,2350597,2350758,2350917,2351077,2351240,2351402,2351562,2351724,2351890,2352053,2352218,2352385,2352551,2352713,2352877,2353038,2353198,2353357,2353516,2353673,2353830,2353985,2354145,2354302,2354462,2354623,2354784,2354943,2355104,2355262,2355418,2355570,2355721,2355867,2356013,2356157,2356299,2356440,2356579,2356719,2356858,2356996,2357274,2357413,2357549,2357687,2357823,2357959,2358096,2358235,2358376,2358516,2358661,2358806,2358954,2359104,2359256,2359406,2359558,2359707,2359854,2360000,2360148,2360327,2360445,2360591,2360737,2360884,2361031,2361178,2361329,2361480,2361634,2361796,2361961,2362120,2362285,2362448,2362612,2362775,2362935,2363094,2363252,2363409,2363565,2363720,2363875,2364028,2364183,2364334,2364485,2364636,2364785,2364939,2365091,2365245,2365397,2365549,2365704,2365860,2366017,2366178,2366340,2366505,2366671,2366839,2367005,2367169,2367331,2367492,2367653,2367814,2367975,2368134,2368293,2368452,2368613,2368776,2368938,2369097,2369257,2369419,2369583,2369746,2369909,2370072,2370234,2370398,2370559,2370722,2370885,2371048,2371209,2371372,2371538,2371705,2371873,2372041,2372209,2372374,2372537,2372697,2372855,2373013,2373169,2373328,2373488,2373649,2373810,2373971,2374129,2374288,2374446,2374599,2374748,2374904,2375054,2375204,2375352,2375501,2375647,2375796,2375947,2376253,2376407,2376563,2376722,2376882,2377042,2377202,2377363,2377521,2377677,2377833,2377990,2378144,2378298,2378452,2378606,2378760,2378913,2379068,2379223,2379378,2379535,2379693,2379848,2380003,2380154,2380304,2380453,2380600,2380743,2380886,2381027,2381173,2381316,2381597,2381736,2381875,2382016,2382160,2382306,2382458,2382611,2382766,2382924,2383084,2383245,2383407,2383567,2383726,2383884,2384042,2384198,2384351,2384508,2384663,2384819,2384975,2385131,2385288,2385445,2385600,2385756,2385913,2386070,2386225,2386380,2386535,2386690,2386842,2386995,2387148,2387299,2387450,2387599,2387747,2387893,2388038,2388183,2388327,2388473,2388616,2388758,2388903,2389048,2389195,2389341,2389486,2389632,2389778,2389923,2390068,2390213,2390359,2390506,2390651,2390798,2390943,2391088,2391233,2391379,2391525,2391669,2391813,2391957,2392100,2392240,2392378,2392515,2392650,2392786,2392922,2393057,2393196,2393335,2393476,2393621,2393774,2393933,2394086,2394239,2394389,2394540,2394687,2394836,2394981,2395129,2395278,2395426,2395577,2395728,2395880,2396032,2396180,2396330,2396481,2396632,2396783,2396935,2397085,2397233,2397382,2397535,2397694,2397853,2398009,2398166,2398323,2398480,2398510,2398636,2398794,2398951,2399105,2399259,2399414,2399568,2399720,2399870,2400018,2400164,2400314,2400466,2400617,2400766,2400916,2401064,2401213,2401363,2401512,2401660,2401806,2401954,2402103,2402252,2402403,2402555,2402703,2402850,2402994,2403138,2403282,2403427,2403568,2403709,2403851,2403995,2404140,2404286,2404432,2404579,2404727,2404877,2405024,2405173,2405321,2405469,2405614,2405759,2405904,2406049,2406194,2406339,2406483,2406628,2406771,2406862,2407052,2407213,2407415,2407605,2407741,2407876,2407920,2408280,2408413,2408547,2408679,2408813,2408948,2409081,2409214,2409346,2409481,2409616,2409753,2409893,2410035,2410180,2410327,2410486,2410648,2410809,2410964,2411118,2411270,2411325,2411421,2411576,2411731,2411886,2412038,2412185,2412332,2412477,2412619,2412900,2413045,2413187,2413333,2413476,2413622,2413772,2413924,2414085,2414248,2414408,2414574,2414740,2414902,2415060,2415219,2415376,2415550,2415720,2415885,2416048,2416212,2416374,2416533,2416689,2416847,2417005,2417165,2417326,2417488,2417649,2417812,2417975,2418136,2418299,2418465,2418631,2418795,2418957,2419122,2419285,2419444,2419603,2419759,2419911,2420062,2420212,2420363,2420515,2420670,2420827,2420983,2421142,2421305,2421465,2421635,2421819,2421972,2422138,2422299,2422374,2422636,2422865,2422976,2423144,2423310,2423477,2423647,2423817,2423988,2424163,2424338,2424542,2424642,2424697,2425185,2425348,2425509,2425664,2425813,2425961,2426107,2426252,2426396,2426540,2426684,2426828,2426973,2427117,2427264,2427411,2427560,2427708,2427859,2428008,2428161,2428314,2428472,2428634,2428800,2428871,2428971,2429138,2429302,2429463,2429621,2429775,2429926,2430075,2430223,2430372,2430519,2430667,2430815,2430961,2431107,2431252,2431396,2431541,2431685,2431836,2431987,2432145,2432309,2432482,2432659,2432833,2433014,2433201,2433388,2433571,2433752,2433930,2434107,2434284,2434467,2434658,2434853,2435045,2435245,2435635,2435833,2436023,2436213,2436278,2436407,2436592,2436771,2436831,2436956,2437137,2437313,2437482,2437649,2437813,2437966,2438118,2438268,2438416,2438561,2438707,2438798,2439277,2439417,2439558,2439699,2439844,2439992,2440141,2440287,2440437,2440590,2440744,2440902,2441063,2441222,2441382,2441542,2441703,2441861,2442017,2442172,2442328,2442487,2442649,2442809,2442972,2443135,2443296,2443456,2443614,2443770,2443924,2444076,2444223,2444370,2444516,2444594,2444803,2444949,2445095,2445247,2445398,2445554,2445711,2445865,2446022,2446181,2446337,2446493,2446647,2446802,2446959,2447116,2447269,2447425,2447588,2447752,2447920,2448088,2448256,2448420,2448586,2448752,2448917,2449078,2449238,2449401,2449564,2449723,2449887,2450051,2450215,2450376,2450542,2450705,2450870,2451035,2451199,2451362,2451524,2451682,2451839,2451996,2452154,2452314,2452475,2452634,2452791,2452950,2453111,2453272,2453432,2453592,2453751,2453910,2454066,2454221,2454377,2454533,2454686,2454838,2454992,2455148,2455301,2455452,2455606,2455759,2455913,2456072,2456230,2456385,2456543,2456704,2456864,2457025,2457184,2457340,2457500,2457653,2457808,2457966,2458134,2458307,2458483,2458667,2458858,2459049,2459233,2459411,2459586,2459758,2459929,2460097,2460261,2460421,2460578,2460731,2460880,2461029,2461178,2461333,2461488,2461647,2461808,2461962,2462120,2462287,2462453,2462621,2462787,2462948,2463109,2463267,2463423,2463517,2463578,2463734,2463888,2464040,2464189,2464338,2464488,2464637,2464786,2464939,2465093,2465242,2465392,2465542,2465692,2465840,2465985,2466131,2466274,2466419,2466566,2466713,2466861,2467010,2467162,2467316,2467469,2467620,2467770,2467919,2468064,2468209,2468354,2468499,2468641,2468786,2468805,2468928,2469073,2469220,2469368,2469521,2469672,2469823,2469974,2470129,2470286,2470452,2470616,2470779,2470949,2471121,2471291,2471460,2471528,2471627,2471659,2471793,2471957,2472121,2472282,2472441,2472597,2472752,2472904,2473056,2473205,2473359,2473517,2473675,2473835,2473997,2474167,2474338,2474466,2474532,2474627,2474676,2474842,2474981,2475160,2475313,2475469,2475766,2475916,2476065,2476216,2476371,2476526,2476684,2476847,2477012,2477180,2477346,2477518,2477687,2477852,2478020,2478184,2478345,2478503,2478659,2478816,2478971,2479131,2479290,2479449,2479607,2479767,2480089,2480248,2480412,2480576,2480740,2480908,2481073,2481234,2481398,2481563,2481727,2481891,2482057,2482225,2482393,2482558,2482723,2482888,2483047,2483209,2483370,2483527,2483686,2483843,2484002,2484161,2484323,2484486,2484650,2484816,2484980,2485145,2485311,2485477,2485640,2485799,2485958,2486116,2486273,2486428,2486590,2486754,2486920,2487087,2487255,2487420,2487581,2487739,2487896,2488052,2488215,2488381,2488549,2488716,2488880,2489041,2489202,2489356,2489508,2489660,2489811,2489965,2490119,2490272,2490429,2490591,2490755,2490914,2491078,2491245,2491412,2491579,2491745,2491914,2492083,2492250,2492414,2492577,2492740,2492899,2493056,2493212,2493364,2493516,2493665,2493812,2493962,2494122,2494279,2494434,2494587,2494740,2494892,2495041,2495189,2495337,2495486,2495633,2495776,2495919,2496063,2496207,2496353,2496501,2496650,2496819,2497170,2497187,2497331,2497497,2497659,2497819,2497908,2497980,2498139,2498296,2498449,2498605,2498758,2498910,2499063,2499215,2499367,2499518,2499669,2499821,2499975,2500129,2500290,2500448,2500612,2500781,2500953,2501123,2501293,2501460,2501632,2501805,2501976,2502141,2502310,2502478,2502651,2502819,2502989,2503163,2503337,2503508,2503680,2503852,2504021,2504184,2504343,2504501,2504657,2504811,2504963,2505273,2505429,2505581,2505739,2505898,2506057,2506217,2506376,2506541,2506707,2506876,2507043,2507207,2507370,2507526,2507678,2507829,2507899,2507978,2508065,2508125,2508200,2508273,2508433,2508570,2508726,2508878,2509035,2509192,2509351,2509401,2509514,2509677,2509837,2509994,2510149,2510302,2510329,2510455,2510606,2510757,2510908,2511060,2511215,2511369,2511526,2511685,2511845,2512004,2512162,2512320,2512531,2512787,2512945,2513103,2513262,2513421,2513505,2513579,2513732,2513886,2514042,2514108,2514196,2514352,2514509,2514669,2514832,2514995,2515156,2515321,2515484,2515646,2515806,2515964,2516122,2516278,2516432,2516588,2516743,2516899,2517055,2517217,2517380,2517546,2517717,2517886,2518059,2518231,2518400,2518571,2518745,2518917,2519088,2519256,2519423,2519589,2519755,2519922,2520084,2520244,2520405,2520564,2520722,2520883,2521042,2521200,2521359,2521519,2521680,2521841,2522001,2522159,2522318,2522477,2522637,2522798,2522959,2523118,2523278,2523439,2523602,2523765,2523929,2524090,2524253,2524416,2524577,2524738,2524898,2525055,2525214,2525372,2525530,2525689,2525849,2526005,2526161,2526316,2526472,2526628,2526783,2526937,2527093,2527248,2527405,2527562,2527718,2527873,2528028,2528182,2528338,2528493,2528647,2528800,2528953,2529105,2529258,2529409,2529561,2529713,2529866,2530021,2530175,2530329,2530482,2530637,2530789,2530942,2531095,2531248,2531400,2531551,2531703,2531856,2532010,2532168,2532324,2532481,2532639,2532795,2532952,2533108,2533261,2533414,2533568,2533718,2533866,2534011,2534156,2534302,2534448,2534594,2534744,2534893,2535047,2535197,2535346,2535498,2535651,2535805,2535958,2536110,2536260,2536411,2536557,2536703,2536846,2536991,2537139,2537289,2537441,2537593,2537748,2537902,2538058,2538215,2538372,2538529,2538687,2538853,2539021,2539193,2539368,2539549,2539727,2539909,2540093,2540272,2540444,2540616,2540787,2540955,2541119,2541283,2541445,2541606,2541762,2541919,2542080,2542240,2542399,2542562,2542726,2542889,2543214,2543374,2543428,2543525,2543691,2543848,2543882,2544005,2544159,2544312,2544465,2544618,2544768,2544918,2545067,2545216,2545365,2545510,2545657,2545805,2545953,2546099,2546244,2546387,2546533,2546678,2546821,2546965,2547109,2547255,2547402,2547549,2547695,2547844,2547995,2548145,2548294,2548444,2548594,2548745,2548896,2549046,2549197,2549348,2549501,2549653,2549807,2549958,2550113,2550264,2550414,2550564,2550711,2550859,2551007,2551158,2551309,2551461,2551613,2551768,2551924,2552081,2552236,2552391,2552547,2552698,2552847,2552994,2553144,2553293,2553445,2553596,2553748,2553904,2554060,2554217,2554373,2554529,2554686,2554840,2554993,2555145,2555455,2555610,2555765,2555925,2556085,2556242,2556405,2556568,2556727,2556882,2557039,2557196,2557355,2557513,2557674,2557834,2557993,2558151,2558314,2558632,2558655,2558792,2558952,2559109,2559264,2559419,2559573,2559729,2559883,2560038,2560143,2560190,2560338,2560489,2560624,2560790,2560941,2561093,2561249,2561410,2561572,2561734,2561898,2562063,2562227,2562391,2562557,2562722,2562884,2563046,2563208,2563369,2563526,