107_leadII.txt,356,612,898,1183,1530,1658,1866,2064,2259,2448,2632,2816,2996,3173,3339,3516,3675,3837,3994,4154,4314,4472,4631,4794,4957,5125,5296,5455,5621,5786,5952,6119,6289,6457,6624,6791,6954,7118,7280,7439,7601,7763,7921,8093,8247,8409,8566,8731,8895,9060,9223,9382,9544,9711,9881,10051,10227,10401,10747,10787,10825,11097,11280,11462,11646,11830,12013,12202,12384,12572,12755,12938,13114,13283,13456,13624,13790,13957,14122,14290,14460,14634,14810,15002,15194,15380,15561,15757,15949,16130,16317,16513,16714,16917,17108,17294,17474,17655,17833,18006,18172,18336,18502,18669,18835,18997,19162,19338,19461,19501,19674,19851,20027,20207,20381,20549,20714,20875,21035,21188,21342,21492,21639,21785,21931,22078,22231,22386,22542,22699,22855,23019,23184,23354,23522,23699,23876,24063,24246,24424,24600,24784,24968,25147,25319,25484,25651,25817,25977,26144,26312,26477,26643,26671,26819,27000,27170,27345,27528,27701,27882,28054,28222,28402,28572,28742,28910,29072,29101,29237,29407,29565,29734,29905,30081,30255,30437,30616,30796,30985,31170,31350,31528,31704,31880,32057,32233,32408,32579,32743,32905,33069,33250,33434,33634,33828,34028,34223,34405,34587,34776,34979,35174,35365,35571,35786,35979,36171,36371,36576,36779,36976,37186,37403,37619,37811,38018,38232,38429,38634,38852,39049,39243,39457,39674,39878,40075,40281,40498,40701,40903,41123,41353,41569,41794,42008,42217,42425,42621,42834,43058,43266,43489,43716,43917,44117,44329,44541,44738,44938,45152,45377,45599,45808,46012,46225,46436,46642,46845,47042,47235,47424,47615,47798,47985,48184,48384,48572,48771,48971,49158,49344,49532,49720,49908,50097,50284,50481,50695,50898,51103,51314,51532,51748,51954,52164,52372,52573,52765,52954,53144,53337,53524,53713,53915,54108,54303,54521,54747,54956,55153,55353,55550,55742,55927,56108,56291,56472,56647,56822,57008,57195,57389,57585,57779,57977,58173,58365,58551,58741,58936,59128,59317,59510,59703,59888,60079,60275,60479,60679,60870,61062,61254,61442,61637,61836,62020,62207,62392,62577,62757,62939,63116,63301,63487,63664,63837,64014,64188,64372,64570,64771,64975,65188,65388,65589,65807,66041,66253,66468,66679,66898,67117,67323,67520,67712,67899,68084,68274,68481,68696,68904,69130,69396,69651,69881,70102,70336,70557,70782,70988,71204,71427,71645,71847,72050,72316,72579,72804,73024,73237,73437,73645,73846,74043,74241,74433,74632,74827,75020,75213,75405,75601,75782,75966,76161,76367,76563,76758,76951,77142,77337,77534,77726,77936,78145,78354,78557,78754,78957,79158,79356,79547,79733,79910,80081,80251,80417,80581,80754,80923,81104,81301,81514,81724,81926,82134,82349,82565,82771,82983,83199,83410,83617,83841,84056,84260,84466,84681,84904,85114,85328,85553,85792,86007,86228,86452,86690,86933,87151,87379,87604,87840,88088,88321,88542,88772,89001,89213,89421,89636,89845,90043,90245,90453,90665,90878,91094,91318,91547,91786,92013,92237,92448,92663,92889,93125,93358,93575,93786,93988,94191,94392,94587,94776,94960,95139,95315,95490,95663,95829,96001,96168,96334,96501,96664,96828,96989,97150,97314,97473,97627,97781,97934,98090,98244,98402,98571,98743,98906,99074,99248,99429,99610,99804,99992,100174,100355,100521,100703,100885,101065,101251,101438,101625,101808,102001,102189,102379,102572,102760,102947,103132,103318,103497,103670,103848,104022,104193,104366,104536,104706,104878,105048,105213,105385,105555,105719,105888,106055,106221,106382,106549,106715,106883,107044,107207,107372,107534,107700,107870,108035,108201,108363,108530,108694,108856,109019,109183,109347,109508,109672,109831,109993,110148,110310,110470,110631,110792,110954,111115,111272,111438,111603,111770,111936,112105,112272,112439,112606,112773,112937,113102,113263,113417,113572,113731,113890,114046,114207,114376,114546,114720,114890,115060,115228,115393,115554,115720,115885,116055,116228,116400,116568,116741,116915,117088,117253,117423,117592,117761,117924,118089,118257,118418,118581,118745,118913,119078,119244,119413,119597,119761,119932,120102,120271,120436,120596,120759,120930,121099,121268,121439,121605,121772,121935,122102,122266,122434,122605,122791,122988,123182,123369,123548,123735,123923,124102,124292,124491,124687,124870,125063,125255,125441,125614,125785,125956,126128,126296,126461,126626,126798,126972,127143,127327,127506,127678,127849,128020,128190,128356,128523,128695,128852,129014,129180,129356,129540,129719,129903,130087,130268,130453,130632,130815,131005,131197,131381,131565,131748,131924,132102,132275,132444,132604,132763,132917,133074,133226,133377,133521,133665,133809,133952,134093,134233,134376,134515,134656,134799,134940,135083,135230,135375,135526,135684,135842,136002,136169,136346,136518,136703,136892,137064,137245,137425,137598,137772,137945,138115,138284,138455,138623,138791,138955,139115,139273,139432,139588,139743,139899,140054,140208,140365,140522,140680,140838,140993,141147,141299,141448,141596,141744,141890,142037,142186,142336,142487,142637,142789,142944,143099,143260,143420,143580,143747,143917,144083,144244,144404,144581,144731,144902,145081,145253,145424,145593,145756,145918,146076,146229,146393,146554,146719,146884,147051,147218,147386,147552,147714,147882,148060,148245,148428,148608,148783,148959,149126,149289,149462,149632,149810,149981,150156,150331,150506,150682,150843,151002,151173,151358,151538,151722,151900,152078,152243,152419,152588,152755,152920,153081,153257,153437,153611,153806,154001,154183,154382,154582,154773,154950,155132,155313,155488,155663,155840,156022,156199,156376,156542,156703,156867,157035,157203,157366,157526,157691,157854,158026,158201,158373,158551,158729,158896,159067,159233,159394,159557,159730,159885,160044,160205,160369,160532,160691,160847,161006,161172,161340,161517,161691,161871,162047,162245,162445,162632,162824,163019,163203,163395,163593,163791,163974,164170,164370,164558,164742,164939,165140,165330,165523,165719,165908,166089,166270,166453,166630,166818,167006,167185,167364,167544,167725,167901,168078,168266,168462,168652,168844,169038,169239,169441,169641,169837,170021,170205,170387,170571,170755,170938,171123,171304,171486,171677,171870,172060,172258,172457,172649,172839,173016,173189,173368,173551,173725,173899,174079,174270,174454,174652,174854,175057,175265,175468,175660,175842,176024,176206,176379,176555,176732,176908,177079,177259,177439,177611,177792,177970,178149,178319,178489,178665,178840,179007,179184,179354,179525,179695,179873,180046,180216,180398,180581,180755,180937,181114,181291,181472,181647,181824,182002,182177,182351,182517,182679,182837,182995,183149,183301,183456,183614,183770,183932,184099,184274,184447,184620,184804,184995,185175,185357,185542,185722,185895,186069,186248,186433,186606,186778,186967,187160,187339,187515,187697,187892,188073,188261,188447,188623,188797,188975,189156,189337,189517,189692,189872,190054,190232,190407,190586,190767,190934,191102,191270,191445,191613,191795,191977,192150,192320,192494,192687,192875,193066,193251,193425,193606,193782,193963,194146,194328,194510,194700,194899,195087,195280,195455,195647,195829,196012,196186,196366,196539,196718,196893,197078,197249,197435,197612,197783,197956,198129,198297,198464,198640,198818,198996,199174,199347,199523,199705,199891,200074,200254,200437,200624,200810,200991,201163,201340,201515,201687,201867,202043,202214,202389,202574,202766,202956,203142,203320,203507,203693,203872,204059,204244,204433,204607,204784,204966,205146,205319,205490,205664,205836,206005,206184,206357,206534,206723,206908,207086,207272,207455,207637,207810,207993,208170,208354,208526,208707,208890,209068,209251,209427,209599,209785,209959,210142,210327,210506,210674,210843,211015,211187,211362,211528,211707,211892,212069,212253,212433,212611,212789,212971,213159,213346,213529,213712,213891,214064,214239,214411,214583,214749,214916,215080,215240,215398,215553,215709,215863,216019,216192,216368,216539,216704,216881,217057,217231,217399,217582,217758,217927,218096,218269,218440,218606,218769,218939,219110,219277,219441,219607,219767,219928,220097,220261,220426,220590,220755,220919,221080,221241,221400,221556,221714,221866,222020,222180,222497,222655,222817,222984,223153,223317,223483,223655,223824,223986,224147,224312,224469,224625,224783,224936,225092,225252,225411,225568,225727,225888,226047,226207,226363,226524,226684,226840,226993,227150,227297,227446,227593,227739,227890,228040,228188,228336,228490,228646,228800,228953,229108,229265,229419,229571,229725,229876,230026,230176,230330,230475,230623,230776,230926,231073,231224,231379,231535,231686,231838,231991,232145,232282,232452,232603,232752,232901,233056,233209,233363,233510,233662,233809,233957,234109,234260,234411,234564,234717,234870,235020,235173,235327,235481,235632,235659,235787,235942,236094,236244,236401,236549,236708,236859,237014,237169,237323,237479,237630,237787,237942,238097,238253,238413,238573,238730,238891,239055,239216,239377,239541,239706,239869,240028,240188,240339,240494,240648,240803,240954,241110,241267,241421,241575,241728,241882,242039,242191,242348,242505,242661,242817,242971,243130,243283,243438,243597,243757,243912,244066,244221,244379,244556,244735,244907,245070,245234,245397,245562,245710,245859,246011,246163,246311,246461,246615,246771,246932,247110,247287,247461,247628,247794,247959,248129,248301,248478,248650,248819,248989,249171,249360,249558,249751,249936,250119,250306,250486,250657,250825,250988,251149,251305,251460,251627,251794,251963,252137,252316,252498,252678,252860,253039,253218,253400,253589,253777,253964,254155,254357,254571,254779,254980,255172,255358,255545,255733,255921,256110,256291,256469,256645,256824,257006,257193,257376,257558,257737,257916,258095,258275,258453,258627,258799,258973,259146,259317,259486,259658,259828,260000,260178,260344,260512,260679,260847,261015,261178,261351,261526,261699,261870,262045,262224,262403,262574,262752,262933,263114,263289,263478,263663,263841,264026,264205,264383,264561,264743,264927,265105,265277,265464,265648,265823,266008,266192,266380,266557,266743,266925,267105,267284,267467,267649,267831,268007,268188,268369,268547,268720,268899,269073,269245,269418,269583,269752,269925,270096,270259,270433,270603,270772,270938,271107,271280,271453,271619,271791,271963,272136,272303,272475,272648,272814,272980,273152,273315,273477,273643,273805,273973,274134,274295,274461,274628,274792,274955,275124,275286,275447,275609,275781,275941,276103,276271,276434,276597,276761,276926,277089,277251,277423,277588,277747,277916,278087,278253,278417,278587,278758,278926,279096,279263,279425,279591,279762,279918,280088,280251,280412,280572,280736,280896,281051,281205,281362,281518,281677,281830,281982,282137,282292,282445,282598,282755,282915,283074,283237,283404,283573,283743,283911,284080,284251,284421,284584,284747,284910,285072,285231,285392,285552,285717,285883,286050,286219,286391,286565,286746,286927,287106,287291,287478,287658,287835,288011,288186,288363,288547,288720,288898,289080,289255,289432,289614,289792,289962,290136,290308,290479,290651,290827,291000,291172,291349,291530,291705,291882,292063,292243,292418,292599,292774,292952,293132,293309,293479,293653,293836,294023,294215,294401,294588,294788,294992,295192,295386,295579,295774,295965,296148,296328,296508,296702,296892,297093,297300,297510,297717,297917,298109,298306,298504,298708,298917,299129,299331,299544,299759,299964,300174,300395,300612,300822,301035,301254,301474,301687,301928,302155,302368,302582,302804,303021,303225,303436,303649,303849,304050,304259,304473,304680,304900,305117,305324,305538,305761,305982,306193,306419,306656,306874,307096,307315,307522,307729,307935,308142,308358,308578,308794,309014,309238,309454,309675,309915,310161,310389,310609,310833,311052,311260,311479,311698,311912,312118,312325,312536,312739,312943,313154,313365,313571,313772,313979,314188,314390,314600,314816,315017,315226,315427,315622,315820,316022,316226,316427,316636,316856,317066,317277,317494,317707,317913,318116,318329,318541,318747,318962,319177,319386,319593,319803,320007,320209,320419,320626,320828,321031,321237,321434,321638,321839,322038,322237,322441,322645,322848,323052,323258,323456,323660,323853,324050,324246,324439,324630,324826,325019,325207,325397,325590,325789,325982,326177,326378,326579,326775,326974,327170,327361,327552,327753,327955,328161,328358,328556,328752,328947,329139,329332,329522,329713,329902,330095,330293,330490,330681,330872,331069,331271,331473,331671,331868,332072,332279,332487,332699,332907,333115,333325,333528,333726,333931,334147,334356,334559,334770,334964,335153,335349,335556,335769,335990,336204,336411,336610,336800,336986,337164,337351,337542,337739,337932,338132,338346,338557,338762,338963,339166,339379,339593,339819,340043,340260,340465,340670,340866,341060,341249,341447,341646,341846,342043,342249,342458,342668,342861,343050,343243,343433,343628,343814,344002,344206,344417,344626,344826,345024,345230,345438,345642,345842,346038,346239,346453,346659,346857,347067,347294,347520,347733,347941,348154,348370,348592,348808,349019,349233,349451,349659,349875,350088,350302,350514,350724,350938,351153,351366,351567,351774,351978,352187,352387,352592,352802,353014,353220,353422,353630,353836,354042,354245,354455,354668,354884,355086,355293,355505,355722,355926,356135,356339,356537,356739,356943,357146,357342,357541,357739,357935,358130,358322,358523,358719,358913,359101,359289,359483,359682,359874,360068,360266,360463,360652,360840,361041,361243,361446,361648,361849,362053,362262,362473,362686,362895,363107,363318,363531,363735,363943,364166,364394,364619,364837,365050,365261,365467,365665,365863,366064,366265,366462,366667,366883,367093,367297,367504,367725,367945,368159,368366,368578,368794,369006,369207,369413,369621,369823,370023,370228,370437,370644,370841,371039,371239,371439,371641,371846,372048,372253,372457,372656,372857,373062,373270,373479,373681,373886,374089,374289,374485,374682,374884,375086,375287,375489,375686,375885,376092,376297,376501,376705,376909,377111,377308,377508,377711,377913,378113,378311,378509,378703,378897,379094,379289,379484,379681,379881,380083,380286,380489,380690,380887,381083,381286,381491,381695,381898,382099,382302,382504,382704,382898,383092,383291,383494,383697,383907,384119,384332,384530,384731,384934,385138,385334,385527,385726,385929,386136,386349,386556,386769,386985,387208,387417,387630,387838,388042,388242,388444,388650,388847,389046,389249,389444,389637,389834,390034,390233,390426,390622,390817,391012,391201,391392,391587,391785,391985,392177,392376,392575,392772,392970,393170,393376,393579,393783,393983,394184,394383,394581,394773,394961,395152,395348,395542,395734,395933,396129,396318,396508,396704,396905,397106,397301,397497,397697,397893,398083,398276,398465,398654,398837,399025,399217,399403,399590,399776,399961,400141,400327,400513,400706,400901,401097,401283,401464,401649,401839,402028,402212,402394,402577,402755,402932,403108,403284,403446,403613,403778,403947,404135,404337,404528,404716,404905,405095,405286,405470,405663,405868,406090,406313,406542,406784,407017,407245,407485,407721,407947,408162,408385,408608,408816,409021,409235,409454,409665,409880,410081,410288,410502,410713,410915,411119,411328,411545,411764,411985,412194,412401,412617,412830,413024,413213,413405,413596,413782,413966,414152,414339,414527,414719,414912,415105,415287,415470,415645,415815,415982,416145,416309,416472,416639,416808,416980,417154,417327,417506,417696,417885,418079,418266,418460,418668,418886,419109,419313,419523,419744,419961,420183,420387,420578,420768,420947,421127,421303,421475,421647,421813,421979,422146,422306,422469,422631,422798,423113,423274,423434,423588,423751,423911,424068,424238,424408,424561,424726,424899,425068,425241,425408,425570,425737,425904,426066,426225,426387,426547,426708,426866,427027,427186,427346,427502,427660,427818,427976,428137,428297,428458,428617,428776,428935,429093,429252,429410,429567,429723,429879,430035,430186,430343,430500,430657,430814,430971,431131,431293,431458,431626,431793,431956,432117,432279,432438,432600,432758,432916,433076,433240,433410,433581,433749,433922,434104,434294,434480,434668,434860,435038,435224,435409,435590,435761,435945,436119,436294,436468,436644,436813,436840,436993,437166,437335,437506,437688,437868,438044,438226,438420,438601,438779,438966,439153,439329,439510,439690,439876,440049,440231,440418,440593,440766,440943,441117,441287,441461,441629,441802,441977,442151,442320,442495,442663,442830,443003,443172,443337,443501,443665,443825,443982,444142,444309,444458,444613,444776,444940,445103,445262,445427,445593,445756,445924,446094,446264,446433,446606,446780,446949,447119,447291,447462,447627,447798,447969,448138,448308,448481,448648,448819,448996,449165,449331,449498,449671,449852,450025,450204,450379,450553,450724,450901,451073,451235,451405,451577,451749,451917,452097,452279,452454,452639,452830,453013,453195,453380,453564,453743,453922,454099,454271,454438,454613,454794,454967,455154,455343,455529,455714,455898,456078,456248,456426,456606,456791,456961,457143,457328,457501,457683,457872,458055,458255,458449,458634,458821,459008,459188,459370,459555,459744,459935,460139,460342,460549,460752,460940,461140,461337,461535,461726,461913,462096,462278,462443,462615,462786,462955,463122,463285,463452,463620,463787,463958,464118,464277,464439,464601,464762,464929,465097,465270,465445,465627,465811,465994,466168,466350,466526,466699,466872,467043,467209,467379,467546,467713,467877,468041,468201,468362,468522,468681,468847,469016,469184,469349,469516,469688,469855,470032,470212,470383,470557,470732,470912,471091,471277,471458,471628,471761,471803,471975,472145,472314,472486,472658,472840,473022,473206,473385,473570,473755,473937,473959,474129,474299,474485,474651,474818,474986,475154,475322,475486,475650,475823,475990,476158,476326,476503,476679,476861,477023,477194,477367,477538,477707,477883,478085,478282,478476,478664,478845,479024,479203,479382,479565,479744,479925,480107,480285,480463,480642,480821,480997,481175,481354,481540,481727,481912,482101,482293,482488,482681,482868,483053,483233,483419,483609,483802,483995,484186,484379,484579,484781,484982,485176,485368,485563,485757,485949,486141,486336,486525,486717,486913,487104,487294,487484,487671,487853,488040,488229,488420,488615,488802,488983,489163,489340,489522,489704,489886,489983,490063,490244,490419,490597,490771,490950,491129,491313,491487,491590,491818,491987,492154,492327,492498,492672,492841,493019,493197,493379,493558,493743,493926,494104,494282,494466,494654,494844,495027,495216,495402,495588,495772,495963,496157,496351,496547,496739,496935,497145,497345,497547,497742,497929,498118,498309,498502,498693,498890,499087,499282,499470,499562,499657,499700,499845,500032,500216,500404,500596,500787,500974,501160,501342,501527,501710,501889,502065,502246,502433,502623,502813,503019,503042,503114,503145,503206,503396,503582,503760,503934,504105,504275,504447,504629,504818,505005,505211,505418,505626,505826,506034,506243,506440,506642,506840,507027,507214,507398,507580,507763,507948,508138,508330,508522,508723,508930,509137,509339,509547,509746,509942,510138,510330,510523,510715,510908,511100,511299,511497,511697,511897,512096,512287,512479,512676,512869,513064,513261,513460,513657,513852,514047,514239,514433,514623,514808,514994,515179,515371,515554,515736,515915,516089,516263,516432,516611,516772,516936,517102,517270,517435,517600,517776,517942,518107,518205,518268,518433,518729,518749,518915,519075,519229,519267,519395,519553,519711,519866,520026,520176,520331,520493,520657,520831,521000,521170,521340,521513,521684,521858,522003,522037,522214,522391,522565,522600,522747,522928,523104,523286,523463,523637,523858,523911,523936,523992,524161,524344,524527,524703,524878,525059,525223,525394,525563,525731,525894,526059,526219,526377,526540,526698,526852,527013,527168,527326,527488,527647,527805,527966,528125,528287,528446,528609,528772,528933,529095,529259,529423,529581,529742,529901,530060,530223,530377,530533,530689,530843,530998,531150,531306,531331,531463,531620,531776,531933,532094,532254,532408,532573,532723,532878,533027,533183,533345,533512,533673,533834,533984,534084,534134,534294,534353,534382,534436,534585,534734,534881,535034,535186,535334,535490,535636,535795,535943,536100,536246,536406,536557,536712,536869,537026,537182,537336,537495,537658,537819,537981,538136,538297,538458,538612,538774,538932,539088,539247,539407,539566,539722,539884,540042,540195,540218,540343,540485,540650,540802,540960,541115,541266,541428,541583,541735,541887,542037,542187,542336,542480,542627,542775,542924,543067,543218,543369,543517,543657,543814,543964,544120,544274,544425,544577,544732,544887,545037,545196,545348,545502,545656,545810,545961,546110,546200,546267,546414,546567,546722,546867,547024,547177,547329,547482,547637,547663,547791,547953,548115,548277,548431,548593,548748,548910,549084,549228,549382,549470,549539,549691,549841,549999,550147,550303,550457,550614,550764,550915,551070,551227,551382,551532,551690,551837,551990,552139,552292,552451,552598,552745,552898,553047,553207,553362,553402,553501,553678,553838,553988,554149,554456,554482,554606,554772,554917,555063,555214,555356,555513,555664,555812,555972,556121,556266,556403,556573,556727,556891,557044,557202,557352,557514,557669,557827,557982,558143,558302,558460,558615,558775,558958,559128,559296,559462,559620,559776,559925,560075,560224,560377,560534,560695,560855,561014,561170,561329,561491,561655,561818,561979,562140,562301,562463,562629,562793,562957,563122,563286,563445,563605,563763,563927,564089,564252,564399,564701,564850,565004,565156,565306,565469,565623,565791,565943,566102,566270,566450,566602,566796,566980,567161,567344,567524,567714,567864,568042,568212,568371,568538,568699,568864,569030,569195,569356,569520,569685,569844,570011,570167,570334,570511,570704,570899,571088,571270,571451,571625,571801,571990,572184,572378,572573,572787,572973,573161,573344,573533,573728,573930,574128,574328,574515,574695,574875,575056,575233,575409,575542,575583,575627,575752,575920,576083,576246,576407,576565,576722,576880,577043,577213,577373,577539,577707,577891,578071,578252,578430,578611,578791,578969,579146,579321,579499,579675,579848,580021,580193,580366,580532,580691,580854,581014,581175,581342,581510,581683,581854,582025,582196,582368,582539,582707,582874,583039,583206,583375,583542,583713,583874,584041,584206,584369,584536,584697,584859,585023,585189,585359,585536,585712,585885,586062,586238,586412,586581,586755,586930,587105,587283,587475,587679,587881,588080,588289,588498,588699,588895,589096,589297,589501,589694,589885,590077,590262,590439,590614,590793,590974,591151,591333,591521,591717,591930,592145,592350,592550,592750,592953,593148,593342,593530,593715,593894,594070,594248,594425,594606,594794,594985,595172,595355,595539,595718,595891,596064,596243,596427,596611,596795,596986,597179,597370,597557,597740,598088,598259,598430,598597,598769,598941,599111,599283,599454,599626,599801,599971,600138,600312,600488,600670,600850,601038,601235,601436,601633,601827,602024,602220,602407,602591,602771,602949,603124,603292,603462,603621,603782,603939,604096,604256,604419,604579,604748,604922,605083,605294,605419,605593,605758,605922,606093,606260,606439,606615,606789,606965,607145,607323,607494,607664,607833,608006,608174,608339,608502,608666,608834,608998,609330,609678,609849,610021,610191,610358,610521,610685,610843,611005,611172,611332,611496,611659,611822,611982,612150,612320,612491,612659,612829,612998,613171,613345,613515,613685,613858,614031,614193,614359,614527,614690,614859,615027,615195,615363,615534,615707,615885,616061,616245,616405,616572,616739,616838,617057,617207,617363,617510,617662,617814,617965,618115,618268,618422,618569,618734,618926,619055,619215,619376,619535,619699,619863,620027,620192,620358,620523,620687,620854,621019,621183,621351,621523,621697,621876,622057,622229,622403,622568,622735,622903,623063,623222,623382,623547,623707,623870,624030,624190,624349,624507,624667,624832,624994,625160,625319,625482,625643,625802,625962,626125,626285,626444,626606,626768,626791,626924,627241,627398,627555,627711,627866,628017,628171,628323,628473,628631,628770,628935,629068,629215,629363,629523,629679,629830,629983,630130,630279,630429,630579,630603,630727,630873,631018,631159,631309,631472,631601,631749,631890,632039,632186,632334,632485,632645,632793,632941,633100,633251,633404,633561,633717,633870,634025,634178,634335,634504,634645,634796,634984,635096,635245,635397,635555,635705,635858,636013,636174,636323,636486,636636,636776,636987,637100,637191,637407,637554,637698,637844,637998,638149,638181,638294,638443,638591,638746,638890,639036,639191,639342,639495,639649,639798,639949,640101,640260,640414,640507,640565,640730,640894,641056,641202,641347,641503,641666,641808,641966,642120,642269,642345,642421,642580,642734,642881,643032,643348,643500,643663,643820,643972,644124,644279,644441,644596,644756,644910,645072,645231,645385,645549,645709,645871,646032,646185,646349,646510,646664,646825,646988,647150,647307,647471,647642,647790,647949,648111,648270,648432,648588,648748,649053,649201,649366,649523,649672,649838,649977,650142,650300,650451,650619,650762,650919,651077,651239,651398,651720,651877,652037,652198,652363,652515,652672,652835,652983,653136,653286,653432,653593,653734,653892,654041,654194,654349,654503,654584,654664,654813,654955,655004,655124,655266,655719,655864,656011,656164,656306,656450,656597,656745,656894,657043,657067,657195,657337,657482,657628,657778,657927,658070,658213,658357,658501,658645,658789,658937,659086,659233,659381,659530,659675,659819,659961,660105,660248,660391,660537,660681,660832,660976,661123,661268,661412,661548,661692,661837,661978,662122,662263,662409,662591,662688,662831,662972,663114,663254,663396,663543,663693,663841,663905,663997,664149,664298,664445,664589,664876,665017,665158,665301,665446,665586,665731,666018,666158,666305,666449,666594,666741,666889,667038,667185,667330,667475,667624,667992,668067,668220,668372,668533,668675,668831,668987,669146,669302,669459,669626,669792,669958,670120,670275,670435,670590,670754,670922,671091,671258,671431,671614,671808,672008,672208,672406,672592,672772,672954,673137,673318,673503,673682,673859,674034,674210,674392,674585,674780,674967,675151,675333,675523,675709,675891,676067,676241,676413,676585,676760,676940,677123,677297,677471,677636,677800,677961,678123,678448,678613,678778,678948,679121,679293,679461,679635,679821,680013,680189,680365,680543,680722,680893,681066,681250,681407,681579,681746,681910,682070,682234,682382,682537,682693,682847,683001,683157,683256,683307,683461,683615,683774,683854,684045,684086,684247,684409,684580,684744,684908,685071,685230,685391,685548,685704,685858,686012,686167,686327,686486,686642,686795,686955,687115,687272,687425,687576,687657,687722,687874,688025,688178,688324,688479,688629,688786,688943,689101,689264,689426,689583,689739,689893,690048,690195,690343,690493,690645,690797,690946,691100,691248,691398,691553,691702,691830,692005,692159,692316,692472,692605,692633,692820,693006,693190,693376,693566,693764,693972,694187,694400,694546,694782,694965,695134,695300,695429,695458,695624,695689,695781,695933,696080,696225,696365,696444,696502,696663,696810,696982,697115,697279,697441,697596,697756,697906,698055,698198,698346,698497,698647,698805,698970,699122,699312,699486,699653,699837,700009,700179,700347,700519,700687,700863,701032,701199,701366,701535,701692,701854,702028,702320,702375,702549,702597,702718,702798,703050,703211,703376,703545,703721,703777,703884,703982,704214,704373,704528,704682,704841,705008,705177,705359,705530,705710,705893,706080,706275,706414,706466,706646,706822,706993,707160,707319,707495,707590,707841,707940,708027,708193,708369,708538,708706,708877,709049,709223,709393,709562,709731,709900,710068,710246,710431,710613,710795,710971,711140,711314,711496,711683,711855,712039,712231,712423,712605,712785,712921,712974,713164,713351,713537,713729,713928,714129,714314,714508,714689,714881,715070,715267,715449,715646,715838,716017,716207,716427,716636,716854,717064,717280,717452,717641,717820,717991,718166,718351,718543,718563,718727,718918,719041,719116,719311,719500,719693,719892,720095,720283,720480,720677,720865,721048,721226,721408,721573,721745,721769,721923,722097,722271,722455,722635,722765,722814,723011,723200,723387,723572,723757,723939,724117,724312,724489,724667,724850,725040,725234,725406,725589,725765,725952,726149,726337,726520,726707,726891,727075,727262,727442,727623,727801,727978,728157,728338,728513,728684,728854,729025,729197,729370,729549,729728,729902,730075,730247,730415,730586,730756,730931,731112,731294,731478,731663,731839,732017,732193,732366,732540,732715,732887,733062,733242,733427,733609,733798,733988,734171,734359,734549,734735,734924,735130,735310,735432,735501,735688,735870,736041,736214,736383,736548,736720,736899,737078,737259,737434,737617,737809,737999,738189,738387,738575,738759,738974,739192,739402,739603,739796,739986,740154,740320,740489,740649,740815,740979,741151,741331,741511,741691,741871,742066,742253,742441,742629,742815,743001,743191,743383,743562,743742,743916,744089,744252,744414,744577,744728,744889,745048,745220,745398,745574,745759,745943,746073,746128,746312,746512,746701,746897,747095,747275,747472,747656,747831,748003,748183,748358,748535,748717,748897,749082,749250,749436,749611,749782,749955,750133,750292,750449,750618,750778,750940,751103,751289,751454,751630,751811,751983,752167,752353,752552,752745,752932,753109,753290,753461,753623,753721,753797,753956,754127,754286,754444,754601,754765,754932,755098,755262,755430,755600,755770,755939,756109,756279,756454,756627,756806,756992,757178,757355,757540,757709,757882,758049,758214,758378,758543,758715,758888,759058,759227,759397,759572,759748,759928,760105,760289,760465,760649,760821,760994,761168,761341,761513,761685,761854,762021,762185,762353,762518,762689,762864,763038,763209,763380,763550,763714,763878,764042,764208,764378,764547,764715,764885,765063,765242,765423,765594,765768,765941,766115,766287,766458,766632,766810,766985,767166,767355,767523,767703,767875,768052,768235,768424,768500,768610,768783,768962,769140,769317,769490,769570,769661,769836,770004,770177,770344,770511,770672,770831,770986,771142,771300,771463,771629,771796,771966,772132,772302,772472,772642,772808,772973,773133,773293,773459,773629,773802,773980,774155,774327,774495,774665,774835,775010,775186,775358,775530,775710,775891,776067,776239,776414,776589,776762,776934,777104,777270,777434,777599,777770,777942,778115,778288,778479,778644,778677,778826,779000,779169,779337,779504,779671,779838,780003,780171,780342,780517,780543,780691,780861,781030,781200,781374,781551,781724,781904,782089,782271,782447,782617,782785,782951,783117,783283,783456,783628,783805,783982,784157,784329,784501,784670,784841,785013,785185,785358,785527,785698,785870,786042,786210,786373,786532,786691,786852,787010,787171,787336,787504,787672,787841,788009,788176,788347,788520,788691,788862,789036,789211,789386,789559,789734,789910,790082,790254,790429,790602,790776,790952,791130,791306,791480,791648,791815,791986,792157,792326,792499,792679,792855,793026,793197,793367,793539,793707,793873,794040,794209,794380,794550,794719,794887,795051,795215,795376,795539,795706,795877,796039,796202,796366,796532,796699,796869,797039,797205,797372,797538,797706,797875,798045,798219,798387,798557,798729,798905,799083,799257,799432,799610,799792,799970,800148,800326,800506,800684,800858,801036,801210,801383,801558,801734,801907,802077,802249,802419,802590,802758,802926,803096,803267,803440,803608,803776,803945,804115,804283,804447,804611,804773,804937,805107,805270,805432,805596,805755,805914,806077,806244,806407,806575,806749,806921,807092,807261,807430,807599,807768,807938,808112,808285,808455,808625,808799,808971,809146,809314,809482,809655,809827,809998,810169,810338,810509,810681,810847,811011,811182,811351,811522,811698,811876,812055,812229,812401,812573,812744,812917,813087,813253,813422,813593,813765,813938,814106,814275,814447,814615,814783,814946,815109,815270,815432,815589,815749,815911,816073,816237,816405,816573,816739,816910,817081,817253,817427,817603,817777,817949,818122,818297,818474,818652,818828,819007,819187,819370,819553,819733,819909,820084,820257,820430,820607,820783,820961,821137,821315,821491,821668,821839,822014,822190,822368,822545,822722,822901,823079,823256,823426,823594,823751,823924,824089,824258,824424,824595,824771,824963,825152,825337,825521,825701,825881,826055,826230,826404,826580,826755,826928,827104,827279,827459,827634,827804,827970,828137,828302,828464,828625,828789,828961,829135,829302,829474,829643,829805,829966,830123,830283,830437,830599,830751,830905,831060,831211,831363,831515,831670,831828,831994,832156,832321,832482,832642,832808,832974,833143,833304,833469,833632,833789,833949,834106,834261,834416,834569,834719,834871,835020,835168,835315,835460,835748,835900,836056,836218,836376,836536,836696,836864,837023,837184,837214,837343,837502,837660,837826,837971,838124,838279,838431,838592,838753,838915,839076,839236,839398,839556,839716,839875,840030,840187,840340,840493,840647,840805,840962,841125,841286,841448,841604,841763,841918,842076,842232,842394,842556,842717,842876,843038,843205,843364,843523,843684,843844,844005,844065,844089,844160,844318,844470,844620,844770,844922,845075,845236,845276,845387,845555,845709,845864,846176,846330,846493,846632,846786,846942,847097,847254,847418,847580,847744,847910,848087,848190,848427,848599,848777,848955,849128,849298,849468,849642,849804,849974,850140,850317,850485,850650,850815,850981,851144,851307,851466,851623,851777,851929,852079,852227,852378,852528,852682,852838,852996,853154,853315,853483,853646,853808,853964,854119,854271,854434,854466,854594,854752,854908,855061,855227,855391,855447,855491,855572,855742,855908,856071,856231,856388,856544,856709,856856,857006,857164,857321,857478,857634,857791,857947,858103,858251,858407,858567,858736,858898,859054,859211,859366,859522,859675,859830,859988,860143,860300,860457,860608,860759,860907,861055,861201,861348,861508,861668,861830,861991,862016,862148,862306,862462,862630,862779,862932,863088,863248,863406,863564,863724,863882,864043,864207,864377,864548,864726,864902,865082,865261,865441,865624,865816,866008,866200,866384,866561,866737,866909,867086,867257,867426,867594,867761,867928,868096,868265,868431,868592,868752,868911,869070,869229,869389,869551,869718,869880,870043,870204,870368,870527,870691,870862,871035,871198,871363,871530,871696,871862,872033,872204,872380,872554,872728,872897,873064,873228,873387,873545,873637,873703,873736,873860,874015,874169,874325,874485,874649,874816,874987,875159,875337,875516,875697,875878,876051,876222,876396,876559,876720,876881,877033,877188,877345,877503,877666,877833,878006,878175,878338,878679,878842,879011,879181,879356,879524,879690,879857,880029,880200,880371,880540,880709,880880,881052,881224,881388,881558,881728,881901,882064,882230,882399,882569,882741,882859,882926,883087,883111,883259,883422,883591,883760,883928,884099,884273,884450,884625,884793,884964,885133,885296,885455,885614,885781,885952,886054,886121,886285,886456,886635,886814,886987,887158,887326,887493,887662,887824,887983,888145,888315,888488,888666,888846,889024,889200,889378,889555,889730,889896,890062,890236,890416,890606,890789,890970,891146,891322,891502,891678,891854,892029,892206,892383,892565,892751,892924,893092,893256,893415,893571,893724,893874,894027,894183,894346,894511,894670,894831,894994,895158,895321,895484,895652,895827,896004,896176,896352,896519,896688,896851,897023,897196,897374,897554,897731,897920,898117,898321,898521,898707,898890,899069,899246,899422,899593,899763,899935,900107,900281,900464,900646,900829,901011,901193,901374,901548,901714,901877,902031,902181,902330,902477,902623,902773,902924,903076,903228,903384,903540,903693,903849,904000,904150,904300,904467,904628,904785,904947,905117,905303,905477,905651,905822,905985,906147,906304,906462,906622,906783,906945,907113,907277,907441,907603,907768,907937,908106,908278,908452,908628,908804,908984,909159,909327,909499,909663,909827,909990,910160,910333,910502,910680,910865,911035,911214,911400,911582,911759,911933,912105,912266,912425,912577,912733,912891,913051,913221,913383,913557,913739,913910,914090,914271,914457,914637,914819,915003,915185,915369,915549,915727,915900,916075,916247,916418,916589,916757,916927,917094,917248,917408,917568,917727,917890,918060,918232,918410,918592,918772,918949,919130,919314,919502,919683,919852,920020,920186,920351,920515,920679,920848,921013,921176,921340,921504,921668,921833,922004,922172,922341,922516,922690,922871,923059,923243,923432,923622,923809,923992,924179,924363,924539,924655,924717,924895,925071,925250,925418,925592,925766,925940,926122,926310,926506,926704,926902,927097,927282,927459,927637,927820,927990,928174,928345,928444,928473,928531,928696,928866,929035,929218,929376,929541,929712,929775,929899,930072,930257,930445,930631,930779,930917,930984,931176,931359,931551,931743,931934,932123,932309,932484,932658,932830,932997,933169,933347,933528,933709,933893,934080,934269,934291,934458,934646,934823,935008,935191,935375,935560,935736,935911,936088,936265,936438,936609,936783,936959,937136,937321,937498,937679,937858,937973,938079,938211,938388,938561,938734,938909,939086,939264,939439,939615,939788,939962,940133,940300,940469,940639,940816,940999,941184,941373,941566,941757,942062,942125,942296,942468,942594,942807,942971,943137,943300,943459,943619,943779,943941,944104,944263,944286,944425,944588,944752,944907,945066,945234,945389,945555,945658,945719,945879,946039,946200,946350,946504,946656,946816,946968,947119,947273,947435,947600,947766,947927,948091,948260,948426,948587,948750,948912,949083,949237,949407,949579,949747,949913,950078,950246,950409,950571,950736,950897,951058,951217,951375,951535,951694,951852,952009,952168,952326,952491,952659,952830,953004,953177,953355,953539,953721,953899,954075,954244,954362,954418,954509,954586,954757,954939,955109,955277,955445,955609,955773,955936,956095,956258,956418,956514,956582,956746,956915,957086,957254,957416,957579,957750,957919,958083,958247,958406,958563,958721,958884,959043,959199,959355,959509,959663,959815,959968,960126,960290,960463,960633,960802,960984,961166,961345,961524,961709,961897,962087,962263,962437,962611,962783,962950,963129,963318,963499,963673,963859,964047,964230,964423,964615,964802,964977,965150,965344,965511,965694,965873,966045,966213,966379,966540,966698,966856,967019,967187,967364,967538,967714,967893,968076,968253,968430,968610,968792,968969,969144,969317,969490,969664,969838,970010,970180,970349,970515,970680,970841,971004,971165,971328,971496,971669,971846,972029,972208,972387,972572,972758,972942,973121,973302,973483,973665,973848,974025,974203,974381,974554,974728,974904,975086,975276,975463,975650,975833,976018,976203,976386,976567,976744,976918,977090,977259,977429,977591,977754,977915,978074,978232,978391,978554,978732,978914,979094,979270,979454,979634,979827,980017,980205,980390,980573,980755,980930,981106,981282,981461,981640,981825,982010,982191,982370,982541,982716,982896,983077,983255,983438,983621,983809,983994,984172,984352,984526,984700,984876,985056,985235,985407,985582,985759,985930,986103,986279,986455,986629,986801,986980,987159,987338,987515,987695,987883,988059,988245,988428,988608,988791,988965,989116,989140,989306,989469,989643,989813,989980,990153,990319,990497,990671,990845,991020,991196,991369,991539,991711,991881,992046,992216,992386,992548,992705,992865,993025,993181,993338,993497,993654,993812,993970,994125,994278,994430,994578,994729,994877,995031,995179,995331,995480,995629,995779,995929,996078,996222,996370,996515,996539,996659,996803,996945,997088,997233,997377,997524,997677,997991,998143,998301,998459,998615,998775,998864,998933,999097,999263,999402,999561,999722,999890,1000056,1000228,1000390,1000512,1000568,1000756,1000949,1001140,1001328,1001525,1001724,1001918,1002111,1002302,1002500,1002693,1002886,1003074,1003259,1003444,1003625,1003802,1003980,1004157,1004334,1004516,1004698,1004875,1005055,1005235,1005413,1005593,1005763,1005936,1006109,1006285,1006457,1006592,1006631,1006803,1006823,1006970,1007144,1007323,1007495,1007669,1007842,1008014,1008188,1008362,1008538,1008714,1008892,1009067,1009239,1009403,1009565,1009728,1009889,1010059,1010228,1010394,1010559,1010723,1010889,1011060,1011231,1011406,1011578,1011751,1011921,1012089,1012254,1012417,1012577,1012737,1012902,1013052,1013209,1013286,1013477,1013679,1013840,1013995,1014154,1014307,1014461,1014613,1014764,1014915,1015068,1015219,1015373,1015527,1015683,1016012,1016168,1016327,1016486,1016684,1016878,1017056,1017229,1017397,1017564,1017730,1017891,1018052,1018210,1018366,1018524,1018681,1018840,1019001,1019160,1019320,1019480,1019642,1019803,1019964,1020129,1020293,1020456,1020619,1020786,1020955,1021125,1021300,1021479,1021661,1021841,1022015,1022189,1022362,1022541,1022716,1022895,1023073,1023250,1023422,1023596,1023768,1023937,1024108,1024279,1024448,1024618,1024789,1024958,1025123,1025285,1025448,1025608,1025766,1025923,1026082,1026241,1026402,1026558,1026716,1026872,1027029,1027186,1027345,1027506,1027667,1027829,1027991,1028152,1028312,1028471,1028632,1028794,1028958,1029120,1029282,1029446,1029606,1029768,1029929,1030091,1030251,1030413,1030575,1030740,1030902,1031062,1031219,1031378,1031535,1031694,1031857,1032020,1032185,1032356,1032530,1032705,1032880,1033052,1033218,1033384,1033550,1033714,1033879,1034041,1034206,1034370,1034536,1034698,1034859,1035019,1035178,1035337,1035497,1035656,1035816,1035977,1036134,1036289,1036446,1036598,1036754,1036910,1037065,1037223,1037382,1037538,1037696,1037849,1038002,1038155,1038309,1038467,1038631,1038807,1038985,1039164,1039342,1039517,1039688,1039856,1040027,1040194,1040362,1040531,1040697,1040861,1041025,1041185,1041345,1041501,1041658,1041817,1041977,1042143,1042306,1042473,1042644,1042819,1042995,1043173,1043349,1043521,1043690,1043856,1044017,1044179,1044343,1044511,1044689,1044867,1045047,1045234,1045421,1045611,1045804,1045994,1046176,1046360,1046539,1046714,1046891,1047068,1047234,1047398,1047563,1047729,1047892,1048057,1048222,1048392,1048560,1048725,1048890,1049056,1049221,1049386,1049552,1049720,1049890,1050063,1050233,1050406,1050575,1050746,1050915,1051082,1051249,1051418,1051591,1051763,1051936,1052106,1052276,1052447,1052618,1052789,1052956,1053126,1053293,1053463,1053627,1053793,1053956,1054119,1054280,1054437,1054596,1054757,1054916,1055075,1055235,1055396,1055556,1055715,1055872,1056027,1056183,1056337,1056489,1056642,1056794,1056945,1057097,1057249,1057397,1057545,1057691,1057732,1057837,1057984,1058131,1058279,1058438,1058647,1058837,1059014,1059185,1059350,1059511,1059672,1059827,1059985,1060141,1060293,1060460,1060628,1060807,1060986,1061166,1061339,1061526,1061744,1061955,1062156,1062351,1062535,1062718,1062894,1063057,1063218,1063380,1063541,1063706,1063879,1064047,1064221,1064410,1064604,1064793,1064974,1065160,1065334,1065506,1065669,1065834,1065997,1066160,1066327,1066498,1066667,1066833,1067008,1067182,1067353,1067523,1067697,1067873,1068053,1068233,1068409,1068592,1068760,1068932,1069099,1069269,1069442,1069618,1069793,1069967,1070144,1070322,1070499,1070671,1070849,1071025,1071202,1071375,1071555,1071727,1071904,1072083,1072263,1072441,1072618,1072795,1072971,1073147,1073323,1073500,1073676,1073850,1074023,1074189,1074355,1074517,1074677,1074838,1074999,1075162,1075327,1075492,1075655,1075820,1075987,1076154,1076317,1076481,1076646,1076771,1076813,1076979,1077145,1077310,1077474,1077635,1077804,1077970,1078140,1078307,1078471,1078636,1078799,1078954,1079115,1079276,1079435,1079600,1079765,1079927,1080088,1080249,1080411,1080570,1080732,1080897,1081061,1081228,1081399,1081571,1081746,1081914,1082081,1082243,1082404,1082565,1082724,1082883,1083043,1083203,1083363,1083523,1083686,1083847,1084007,1084167,1084330,1084494,1084659,1084819,1084989,1085166,1085342,1085514,1085687,1085855,1086017,1086179,1086343,1086510,1086681,1086849,1087025,1087189,1087357,1087531,1087578,1087700,1088034,1088202,1088370,1088488,1088722,1088897,1089071,1089243,1089416,1089590,1089764,1089936,1090105,1090280,1090448,1090617,1090782,1090943,1091101,1091258,1091415,1091569,1091721,1091885,1092047,1092212,1092380,1092552,1092728,1092899,1093070,1093240,1093413,1093586,1093757,1093932,1094101,1094273,1094445,1094620,1094795,1094974,1095156,1095337,1095518,1095693,1095864,1096036,1096205,1096371,1096540,1096714,1096886,1097059,1097236,1097416,1097591,1097766,1097940,1098113,1098286,1098458,1098628,1098798,1098960,1099120,1099275,1099432,1099586,1099742,1099908,1100077,1100245,1100418,1100589,1100759,1100924,1101083,1101240,1101396,1101557,1101720,1101888,1102057,1102226,1102398,1102568,1102739,1102908,1103072,1103231,1103390,1103545,1103697,1103848,1103999,1104152,1104306,1104464,1104623,1104785,1104952,1105122,1105294,1105464,1105633,1105799,1105965,1106130,1106303,1106473,1106642,1106809,1106977,1107146,1107313,1107481,1107651,1107822,1107989,1108155,1108326,1108499,1108671,1108843,1109012,1109184,1109353,1109522,1109690,1109856,1110022,1110190,1110361,1110526,1110692,1110861,1111029,1111196,1111362,1111528,1111693,1111860,1112023,1112184,1112346,1112507,1112668,1112829,1112989,1113153,1113314,1113479,1113648,1113815,1113982,1114149,1114314,1114478,1114640,1114799,1114960,1115124,1115293,1115465,1115638,1115804,1115974,1116147,1116325,1116499,1116676,1116856,1117039,1117216,1117392,1117571,1117746,1117917,1118085,1118246,1118412,1118572,1118740,1118908,1119073,1119246,1119417,1119587,1119611,1119753,1119925,1120090,1120257,1120424,1120583,1120748,1120916,1121088,1121259,1121432,1121605,1121771,1121943,1122118,1122291,1122472,1122655,1122844,1123028,1123218,1123398,1123588,1123763,1123942,1124117,1124299,1124476,1124651,1124826,1125007,1125188,1125368,1125562,1125761,1125950,1126138,1126328,1126516,1126699,1126889,1127083,1127267,1127458,1127638,1127814,1127999,1128174,1128348,1128379,1128525,1128704,1128881,1129053,1129227,1129401,1129576,1129743,1129913,1130079,1130244,1130409,1130573,1130738,1130903,1131066,1131229,1131393,1131554,1131717,1131875,1132032,1132188,1132343,1132496,1132649,1132799,1132952,1133103,1133256,1133409,1133564,1133719,1133886,1134031,1134186,1134341,1134497,1134649,1134802,1134957,1135113,1135267,1135422,1135579,1135736,1135899,1136063,1136225,1136390,1136552,1136717,1136878,1137041,1137205,1137363,1137524,1137683,1137842,1138003,1138164,1138335,1138503,1138670,1138831,1138994,1139162,1139313,1139481,1139641,1139800,1139958,1140114,1140276,1140442,1140592,1140748,1140906,1141063,1141223,1141379,1141537,1141698,1141860,1142020,1142179,1142343,1142507,1142670,1142834,1143002,1143174,1143346,1143514,1143678,1143842,1144002,1144160,1144316,1144469,1144623,1144650,1144784,1144943,1145105,1145276,1145453,1145631,1145804,1145977,1146154,1146330,1146501,1146672,1146847,1147028,1147213,1147387,1147560,1147729,1147899,1148069,1148241,1148415,1148591,1148762,1148935,1149113,1149291,1149465,1149643,1149826,1150011,1150190,1150367,1150545,1150720,1150893,1151072,1151251,1151429,1151603,1151777,1151949,1152118,1152287,1152458,1152626,1152796,1152969,1153143,1153316,1153489,1153662,1153835,1154004,1154177,1154352,1154520,1154688,1154856,1155025,1155197,1155366,1155535,1155707,1155877,1156048,1156215,1156376,1156539,1156702,1156859,1157015,1157169,1157322,1157483,1157622,1157773,1157928,1158085,1158243,1158401,1158567,1158737,1158905,1159073,1159243,1159416,1159586,1159756,1159927,1160096,1160265,1160433,1160603,1160773,1160942,1161107,1161278,1161447,1161619,1161788,1161959,1162128,1162300,1162470,1162634,1162802,1162963,1163120,1163278,1163432,1163589,1163896,1164048,1164202,1164356,1164511,1164664,1164819,1164975,1165135,1165296,1165459,1165621,1165779,1165935,1166091,1166247,1166403,1166558,1166713,1166868,1167025,1167186,1167349,1167511,1167671,1167828,1167986,1168145,1168302,1168458,1168612,1168761,1168912,1169063,1169214,1169366,1169518,1169672,1169826,1169986,1170143,1170298,1170452,1170606,1170760,1170918,1171075,1171231,1171386,1171545,1171702,1171858,1172016,1172176,1172340,1172504,1172665,1172828,1172993,1173161,1173327,1173495,1173663,1173833,1174001,1174169,1174345,1174515,1174686,1174857,1175029,1175202,1175376,1175547,1175715,1175883,1176042,1176196,1176351,1176501,1176651,1176799,1176951,1177111,1177284,1177454,1177626,1177803,1177981,1178154,1178325,1178493,1178660,1178824,1178989,1179154,1179322,1179487,1179639,1179809,1179969,1180127,1180285,1180446,1180608,1180767,1180928,1181089,1181256,1181421,1181591,1181766,1181940,1182111,1182280,1182448,1182611,1182767,1182918,1183073,1183230,1183393,1183566,1183744,1183912,1184090,1184274,1184461,1184661,1184873,1185071,1185278,1185485,1185865,1186052,1186235,1186420,1186607,1186799,1186989,1187185,1187378,1187562,1187747,1187933,1188118,1188300,1188484,1188668,1188843,1189016,1189189,1189357,1189521,1189682,1189843,1190000,1190160,1190325,1190495,1190667,1190838,1191010,1191186,1191375,1191569,1191749,1191930,1192110,1192291,1192469,1192643,1192815,1192983,1193149,1193322,1193497,1193672,1193849,1194031,1194213,1194391,1194567,1194752,1194914,1195082,1195249,1195417,1195586,1195754,1195924,1196097,1196271,1196442,1196611,1196776,1196940,1197104,1197268,1197436,1197602,1197768,1197932,1198098,1198262,1198426,1198591,1198757,1198926,1199092,1199258,1199423,1199585,1199750,1199914,1200080,1200248,1200414,1200581,1200748,1200912,1201074,1201238,1201407,1201575,1201739,1201904,1202071,1202229,1202391,1202556,1202719,1202880,1203043,1203203,1203372,1203523,1203685,1203848,1204018,1204190,1204370,1204545,1204718,1204887,1205060,1205234,1205407,1205571,1205739,1205909,1206078,1206244,1206412,1206585,1206757,1206929,1207097,1207265,1207431,1207598,1207766,1207935,1208102,1208268,1208437,1208608,1208778,1208946,1209112,1209279,1209447,1209611,1209777,1209940,1210107,1210275,1210444,1210609,1210776,1210943,1211106,1211270,1211432,1211594,1211755,1211915,1212070,1212229,1212384,1212545,1212700,1212859,1213020,1213173,1213340,1213507,1213564,1213681,1213849,1213897,1214017,1214192,1214356,1214395,1214526,1214697,1214867,1215035,1215204,1215376,1215542,1215706,1215868,1215971,1216038,1216210,1216385,1216554,1216723,1216896,1217067,1217235,1217413,1217585,1217757,1217932,1218105,1218264,1218430,1218598,1218759,1218919,1219082,1219246,1219414,1219584,1219750,1219917,1220085,1220250,1220419,1220585,1220747,1220903,1221057,1221225,1221390,1221549,1221707,1221867,1222022,1222177,1222329,1222482,1222640,1222797,1222965,1223127,1223294,1223471,1223643,1223814,1223984,1224156,1224319,1224500,1224679,1224851,1225024,1225195,1225363,1225525,1225692,1225847,1226008,1226164,1226303,1226325,1226488,1226647,1226804,1226960,1227115,1227285,1227371,1227455,1227628,1227801,1227970,1228141,1228310,1228478,1228650,1228752,1228778,1228805,1228975,1229135,1229298,1229457,1229612,1229767,1229922,1230080,1230235,1230396,1230559,1230720,1230878,1231039,1231198,1231354,1231511,1231671,1231832,1231992,1232152,1232313,1232474,1232633,1232791,1232949,1233108,1233267,1233430,1233594,1233761,1233925,1234092,1234257,1234419,1234578,1234737,1234890,1235042,1235199,1235354,1235510,1235671,1235831,1235996,1236162,1236334,1236436,1236493,1236668,1236822,1236980,1237138,1237303,1237425,1237630,1237791,1237963,1238139,1238325,1238507,1238602,1238650,1238686,1238867,1239045,1239217,1239249,1239382,1239546,1239709,1239867,1240029,1240189,1240213,1240313,1240358,1240526,1240703,1240858,1240956,1240978,1241031,1241200,1241364,1241531,1241694,1241855,1242018,1242179,1242342,1242501,1242658,1242817,1242978,1243145,1243323,1243509,1243700,1243885,1244068,1244255,1244445,1244639,1244827,1245011,1245193,1245366,1245537,1245705,1245868,1246030,1246193,1246356,1246522,1246687,1246851,1247015,1247183,1247245,1247355,1247513,1247558,1247680,1247791,1248002,1248157,1248311,1248461,1248610,1248761,1248913,1249077,1249229,1249391,1249549,1249710,1249873,1250037,1250203,1250373,1250554,1250731,1250907,1251093,1251282,1251474,1251662,1251851,1252043,1252231,1252419,1252606,1252787,1252970,1253158,1253339,1253523,1253706,1253893,1254080,1254262,1254447,1254625,1254801,1254969,1255136,1255297,1255460,1255624,1255794,1255968,1256140,1256317,1256499,1256689,1256871,1257052,1257237,1257422,1257609,1257793,1257970,1258155,1258322,1258498,1258677,1258847,1259024,1259201,1259378,1259547,1259714,1259884,1260050,1260218,1260388,1260563,1260737,1260917,1260989,1261087,1261112,1261262,1261435,1261610,1261789,1261968,1262141,1262318,1262487,1262658,1262828,1262914,1262990,1263153,1263315,1263475,1263635,1263791,1263948,1264106,1264262,1264292,1264418,1264575,1264735,1264894,1265058,1265228,1265408,1265582,1265758,1265936,1266111,1266282,1266453,1266625,1266794,1266962,1267128,1267295,1267459,1267621,1267782,1267945,1268107,1268271,1268434,1268596,1268764,1268931,1269093,1269257,1269417,1269575,1269733,1269889,1270047,1270202,1270354,1270506,1270659,1270810,1270959,1271107,1271257,1271408,1271561,1271716,1271868,1272026,1272185,1272346,1272501,1272663,1272821,1272979,1273138,1273297,1273452,1273605,1273758,1273914,1274061,1274217,1274375,1274532,1274690,1274843,1275000,1275151,1275314,1275461,1275618,1275779,1275942,1276104,1276272,1276437,1276526,1276604,1276650,1276779,1276951,1277122,1277288,1277454,1277623,1277790,1277958,1278119,1278284,1278453,1278621,1278797,1278949,1279114,1279278,1279439,1279599,1279761,1279923,1280082,1280239,1280395,1280549,1280706,1280866,1281026,1281189,1281353,1281517,1281689,1281849,1282025,1282185,1282348,1282511,1282674,1282830,1282995,1283154,1283326,1283492,1283658,1283820,1283980,1284139,1284295,1284452,1284610,1284770,1284932,1285091,1285253,1285418,1285583,1285751,1285915,1286082,1286257,1286425,1286595,1286765,1286935,1287101,1287266,1287431,1287601,1287769,1287941,1288115,1288290,1288469,1288502,1288647,1288675,1288826,1289007,1289181,1289273,1289308,1289475,1289541,1289720,1289897,1290074,1290260,1290441,1290623,1290811,1290997,1291183,1291363,1291547,1291727,1291911,1292089,1292267,1292448,1292627,1292799,1292975,1293152,1293329,1293500,1293673,1293842,1294018,1294183,1294351,1294521,1294691,1294862,1295030,1295200,1295371,1295539,1295708,1295875,1296043,1296215,1296385,1296552,1296723,1296901,1297075,1297254,1297426,1297603,1297770,1297936,1298100,1298255,1298416,1298578,1298763,1298938,1299112,1299283,1299451,1299614,1299770,1299928,1300085,1300245,1300406,1300562,1300720,1300878,1301035,1301191,1301345,1301498,1301650,1301807,1301967,1302130,1302292,1302454,1302616,1302776,1302936,1303097,1303255,1303412,1303570,1303726,1303874,1304025,1304170,1304318,1304468,1304622,1304780,1304933,1305090,1305250,1305413,1305574,1305742,1305910,1306081,1306250,1306422,1306592,1306760,1306926,1307093,1307258,1307421,1307585,1307746,1307908,1308070,1308232,1308401,1308568,1308735,1308901,1309071,1309220,1309376,1309535,1309694,1309848,1310003,1310161,1310319,1310480,1310642,1310810,1310975,1311140,1311305,1311472,1311636,1311793,1311959,1312070,1312108,1312269,1312421,1312579,1312737,1312896,1313057,1313217,1313379,1313626,1313699,1313860,1314022,1314182,1314346,1314506,1314667,1314831,1314997,1315163,1315323,1315491,1315664,1315832,1316007,1316171,1316334,1316501,1316666,1316833,1316997,1317163,1317335,1317505,1317674,1317850,1317875,1318017,1318183,1318350,1318515,1318683,1318846,1319006,1319169,1319325,1319482,1319637,1319791,1319945,1320098,1320243,1320393,1320541,1320691,1320846,1320993,1321145,1321298,1321447,1321596,1321747,1321897,1322052,1322202,1322356,1322513,1322674,1322833,1322998,1323154,1323309,1323460,1323625,1323782,1323925,1324088,1324244,1324396,1324558,1324715,1324870,1325027,1325180,1325332,1325482,1325634,1325712,1325783,1325928,1326078,1326232,1326399,1326575,1326762,1326961,1327162,1327348,1327536,1327717,1327894,1328069,1328247,1328429,1328606,1328780,1328956,1329125,1329174,1329291,1329452,1329610,1329769,1329927,1330084,1330240,1330398,1330558,1330719,1330837,1331038,1331202,1331366,1331526,1331687,1331849,1332016,1332188,1332359,1332525,1332694,1332864,1333037,1333190,1333362,1333533,1333707,1333884,1334055,1334227,1334405,1334585,1334759,1334933,1335105,1335273,1335434,1335595,1335761,1335923,1336083,1336247,1336415,1336586,1336762,1336937,1337111,1337286,1337467,1337639,1337815,1337987,1338158,1338329,1338497,1338669,1338845,1339019,1339189,1339363,1339539,1339714,1339884,1340058,1340232,1340405,1340573,1340743,1340911,1341080,1341246,1341416,1341589,1341762,1341934,1342103,1342279,1342457,1342636,1342808,1342979,1343153,1343331,1343509,1343689,1343877,1344066,1344250,1344425,1344596,1344763,1344928,1345102,1345279,1345458,1345638,1345823,1346009,1346190,1346373,1346544,1346657,1346876,1347034,1347192,1347352,1347513,1347676,1347841,1348009,1348180,1348263,1348349,1348521,1348690,1348860,1349027,1349196,1349295,1349359,1349523,1349687,1349851,1350015,1350183,1350353,1350519,1350692,1350867,1351042,1351205,1351379,1351559,1351720,1351886,1352062,1352251,1352415,1352585,1352753,1352915,1353078,1353240,1353404,1353573,1353746,1353919,1354093,1354188,1354275,1354443,1354619,1354790,1354956,1355121,1355281,1355447,1355606,1355769,1355937,1356103,1356267,1356440,1356620,1356799,1356983,1357168,1357347,1357529,1357706,1357884,1358063,1358237,1358414,1358592,1358770,1358953,1359130,1359313,1359492,1359669,1359844,1359871,1360020,1360205,1360376,1360553,1360733,1360918,1361097,1361284,1361444,1361617,1361783,1361948,1362111,1362271,1362430,1362589,1362745,1362898,1363056,1363214,1363377,1363542,1363713,1363878,1364046,1364213,1364380,1364543,1364706,1364871,1365030,1365190,1365350,1365511,1365671,1365832,1365989,1366145,1366301,1366454,1366607,1366762,1366917,1367075,1367227,1367386,1367552,1367721,1367886,1368057,1368226,1368401,1368569,1368738,1368905,1369073,1369243,1369399,1369558,1369713,1369867,1370020,1370171,1370323,1370470,1370630,1370794,1370958,1371128,1371292,1371457,1371621,1371784,1371952,1372107,1372271,1372435,1372599,1372768,1372933,1373263,1373427,1373591,1373753,1373918,1374079,1374238,1374394,1374545,1374695,1374843,1374990,1375137,1375284,1375436,1375593,1375748,1375907,1376065,1376226,1376387,1376547,1376711,1376875,1377039,1377191,1377347,1377505,1377663,1377816,1377971,1378127,1378282,1378439,1378592,1378743,1378893,1379042,1379188,1379334,1379479,1379629,1379777,1379932,1380091,1380251,1380410,1380571,1380737,1380902,1381064,1381223,1381379,1381534,1381691,1381853,1382025,1382173,1382334,1382497,1382657,1382823,1382994,1383166,1383336,1383503,1383669,1383834,1383999,1384161,1384322,1384353,1384483,1384642,1384801,1384959,1385114,1385267,1385424,1385578,1385734,1385889,1386043,1386203,1386367,1386532,1386699,1386877,1387058,1387234,1387410,1387587,1387765,1387936,1388109,1388284,1388457,1388627,1388800,1388974,1389147,1389316,1389480,1389648,1389809,1389978,1390146,1390318,1390488,1390659,1390831,1391002,1391176,1391348,1391513,1391679,1391842,1391997,1392150,1392302,1392450,1392600,1392751,1392899,1393052,1393201,1393356,1393513,1393672,1393830,1394001,1394162,1394328,1394493,1394665,1394838,1395002,1395174,1395337,1395503,1395669,1395835,1396005,1396177,1396343,1396513,1396685,1396857,1397021,1397187,1397356,1397521,1397693,1397869,1398043,1398217,1398384,1398551,1398715,1398817,1398874,1399036,1399203,1399363,1399532,1399699,1399863,1400030,1400202,1400377,1400546,1400710,1400878,1401044,1401212,1401371,1401531,1401687,1401847,1402002,1402163,1402330,1402498,1402663,1402829,1402999,1403170,1403330,1403493,1403655,1403818,1404138,1404217,1404291,1404451,1404558,1404608,1404769,1404928,1405081,1405239,1405394,1405545,1405698,1405850,1406003,1406159,1406318,1406474,1406637,1406802,1406969,1407134,1407299,1407463,1407629,1407790,1407955,1408120,1408280,1408439,1408596,1408754,1408911,1409067,1409227,1409382,1409533,1409686,1409838,1409990,1410142,1410291,1410442,1410592,1410744,1410898,1411051,1411208,1411354,1411803,1411951,1412102,1412392,1412502,1412710,1412875,1412998,1413037,1413207,1413383,1413559,1413735,1413909,1414077,1414250,1414423,1414589,1414758,1414935,1415117,1415305,1415490,1415669,1415848,1416024,1416201,1416366,1416535,1416698,1416873,1417051,1417251,1417393,1417653,1417851,1418041,1418226,1418414,1418599,1418780,1418960,1419134,1419309,1419484,1419657,1419827,1419993,1420159,1420317,1420478,1420642,1420805,1420974,1421146,1421314,1421486,1421658,1421827,1421999,1422172,1422343,1422507,1422676,1422842,1423004,1423171,1423340,1423514,1423683,1423859,1424035,1424209,1424382,1424555,1424725,1424892,1425058,1425230,1425400,1425566,1425735,1425908,1426077,1426247,1426411,1426565,1426730,1426896,1427103,1427211,1427450,1427619,1427789,1427956,1428125,1428291,1428450,1428611,1428771,1428933,1429095,1429259,1429421,1429586,1429751,1429918,1430085,1430252,1430419,1430588,1430753,1430921,1431092,1431262,1431432,1431601,1431771,1431939,1432104,1432267,1432441,1432606,1432778,1432948,1433114,1433278,1433442,1433609,1433781,1433945,1434110,1434277,1434442,1434604,1434764,1434923,1435082,1435242,1435399,1435559,1435718,1435880,1436039,1436199,1436363,1436529,1436694,1436857,1437020,1437184,1437345,1437504,1437662,1437821,1437981,1438139,1438296,1438455,1438613,1438768,1438926,1439081,1439235,1439392,1439554,1439704,1439859,1440014,1440169,1440327,1440483,1440632,1440797,1440822,1440952,1441108,1441263,1441420,1441578,1441734,1441887,1442040,1442188,1442350,1442507,1442657,1442814,1442971,1443126,1443280,1443436,1443592,1443745,1443899,1444053,1444207,1444361,1444512,1444663,1444814,1444965,1445117,1445267,1445419,1445572,1445726,1445879,1446032,1446186,1446341,1446496,1446651,1446805,1446960,1447115,1447262,1447414,1447567,1447719,1447871,1448025,1448176,1448329,1448480,1448634,1448790,1448944,1449107,1449257,1449414,1449571,1449729,1449886,1450043,1450200,1450354,1450510,1450667,1450820,1450976,1451131,1451291,1451450,1451609,1451768,1451927,1452082,1452243,1452408,1452574,1452735,1452899,1453062,1453227,1453390,1453549,1453709,1453871,1454032,1454191,1454301,1454343,1454504,1454660,1454816,1454974,1455131,1455289,1455451,1455599,1455751,1455907,1456065,1456214,1456372,1456528,1456687,1456846,1457004,1457164,1457323,1457478,1457631,1457783,1457931,1458082,1458234,1458387,1458538,1458689,1458844,1458997,1459152,1459306,1459462,1459619,1459777,1459934,1460091,1460251,1460408,1460566,1460724,1460880,1461034,1461185,1461335,1461486,1461635,1461787,1461931,1462079,1462227,1462378,1462528,1462673,1462823,1462970,1463111,1463254,1463399,1463546,1463692,1463844,1463984,1464132,1464275,1464424,1464721,1464865,1465014,1465164,1465324,1465464,1465617,1465693,1465810,1465917,1466066,1466220,1466368,1466521,1466670,1466820,1466971,1467122,1467273,1467423,1467573,1467723,1467766,1467878,1468027,1468179,1468337,1468491,1468646,1468804,1468965,1469127,1469298,1469462,1469627,1469794,1469963,1470131,1470295,1470459,1470629,1470798,1470968,1471124,1471285,1471452,1471611,1471769,1471930,1472092,1472254,1472418,1472582,1472744,1472907,1473067,1473117,1473226,1473390,1473552,1473714,1473872,1474034,1474195,1474359,1474519,1474685,1474709,1474850,1475014,1475176,1475338,1475499,1475664,1475821,1475991,1476156,1476473,1476639,1476816,1476986,1477166,1477338,1477505,1477674,1477853,1478038,1478232,1478418,1478610,1478785,1478964,1479135,1479313,1479473,1479636,1479800,1479972,1480150,1480282,1480340,1480519,1480675,1480842,1481004,1481169,1481319,1481479,1481643,1481810,1481978,1482145,1482319,1482489,1482661,1482820,1482981,1483146,1483320,1483674,1483862,1484056,1484256,1484459,1484656,1484844,1485030,1485212,1485386,1485559,1485732,1485906,1486080,1486255,1486424,1486587,1486754,1486904,1487062,1487217,1487371,1487526,1487679,1487832,1487982,1488132,1488281,1488431,1488583,1488739,1488886,1488999,1489042,1489266,1489333,1489482,1489638,1489787,1489945,1490113,1490277,1490442,1490609,1490775,1490940,1491108,1491274,1491457,1491627,1491792,1491963,1492138,1492310,1492479,1492645,1492808,1492974,1493139,1493305,1493470,1493635,1493801,1493967,1494131,1494291,1494447,1494605,1494751,1494908,1495057,1495148,1495364,1495517,1495670,1495831,1495945,1496057,1496144,1496309,1496470,1496641,1496812,1496972,1497141,1497310,1497480,1497644,1497811,1497978,1498142,1498303,1498464,1498627,1498958,1499118,1499275,1499417,1499606,1499768,1499941,1500117,1500290,1500470,1500664,1500821,1501008,1501169,1501354,1501504,1501687,1501876,1502005,1502159,1502266,1502308,1502482,1502643,1502817,1502987,1503318,1503663,1503828,1503999,1504166,1504334,1504496,1504661,1504822,1504979,1505136,1505293,1505451,1505609,1505766,1505926,1506095,1506252,1506440,1506624,1506801,1506995,1507195,1507385,1507575,1507763,1507946,1508132,1508313,1508490,1508662,1508797,1508837,1509008,1509171,1509334,1509487,1509548,1509653,1509688,1509817,1509958,1510005,1510109,1510262,1510406,1510431,1510553,1510702,1510839,1510980,1511121,1511255,1511289,1511408,1511554,1511703,1511845,1511986,1512126,1512267,1512409,1512550,1512693,1512834,1512978,1513122,1513270,1513423,1513575,1513725,1513879,1514038,1514194,1514350,1514504,1514659,1514810,1514960,1515110,1515260,1515413,1515568,1515721,1515872,1516023,1516174,1516327,1516480,1516634,1516786,1516938,1517092,1517246,1517402,1517557,1517704,1517854,1518001,1518151,1518301,1518450,1518600,1518750,1518902,1519050,1519199,1519346,1519494,1519642,1519787,1519934,1520077,1520219,1520359,1520499,1520641,1520788,1520941,1521099,1521250,1521407,1521563,1521719,1521880,1522044,1522224,1522397,1522579,1522758,1522931,1523123,1523328,1523541,1523760,1523950,1524145,1524347,1524550,1524737,1524815,1524937,1525118,1525297,1525482,1525662,1525834,1526003,1526169,1526331,1526485,1526639,1526661,1526791,1526940,1527091,1527236,1527382,1527528,1527674,1527821,1527967,1528113,1528263,1528412,1528563,1528714,1528865,1529018,1529181,1529498,1529657,1529812,1529970,1530126,1530284,1530444,1530605,1530769,1530931,1531098,1531262,1531424,1531583,1531738,1531894,1532047,1532199,1532354,1532514,1532679,1532843,1533010,1533175,1533339,1533502,1533660,1533817,1533971,1534123,1534272,1534415,1534561,1534706,1534850,1534998,1535143,1535288,1535436,1535585,1535734,1535881,1536031,1536183,1536324,1536470,1536610,1536753,1536898,1537043,1537189,1537335,1537478,1537622,1537765,1537907,1538050,1538195,1538342,1538489,1538642,1538794,1538952,1539114,1539281,1539451,1539616,1539786,1539959,1540127,1540294,1540463,1540634,1540808,1540977,1541148,1541322,1541489,1541651,1541813,1541979,1542150,1542320,1542493,1542670,1542851,1543030,1543214,1543397,1543580,1543747,1543941,1544118,1544290,1544468,1544639,1544815,1544972,1545133,1545294,1545457,1545621,1545782,1545950,1546122,1546303,1546484,1546666,1546846,1547023,1547199,1547375,1547543,1547711,1547875,1548034,1548190,1548347,1548502,1548655,1548811,1548967,1549123,1549278,1549441,1549596,1549756,1549917,1550083,1550248,1550411,1550566,1550733,1550893,1551056,1551222,1551387,1551554,1551708,1551862,1552019,1552182,1552343,1552508,1552671,1552834,1553003,1553173,1553339,1553503,1553665,1553823,1553973,1554137,1554295,1554457,1554614,1554776,1554935,1555098,1555257,1555418,1555576,1555735,1555890,1556049,1556206,1556362,1556516,1556667,1556819,1556972,1557124,1557278,1557429,1557583,1557737,1557888,1558045,1558200,1558252,1558362,1558491,1558656,1558805,1558955,1559104,1559260,1559296,1559437,1559701,1559851,1560002,1560146,1560295,1560443,1560594,1560745,1560897,1561050,1561207,1561357,1561511,1561664,1561817,1561969,1562124,1562275,1562429,1562590,1562754,1562916,1563080,1563244,1563420,1563583,1563753,1563915,1564076,1564236,1564395,1564555,1564716,1564877,1565036,1565198,1565359,1565517,1565671,1565827,1565988,1566153,1566314,1566474,1566636,1566800,1566962,1567125,1567286,1567448,1567615,1567778,1567942,1568101,1568264,1568429,1568593,1568749,1568907,1569067,1569224,1569380,1569537,1569695,1569853,1570017,1570190,1570366,1570535,1570703,1570869,1571041,1571194,1571349,1571503,1571659,1571813,1571965,1572117,1572261,1572416,1572561,1572706,1572784,1572863,1572997,1573144,1573286,1573436,1573585,1573736,1573883,1574034,1574186,1574343,1574496,1574660,1574807,1574967,1575125,1575278,1575441,1575609,1575758,1575921,1576077,1576170,1576238,1576400,1576548,1576701,1576851,1576999,1577156,1577298,1577448,1577599,1577747,1577895,1578047,1578200,1578353,1578506,1578670,1578823,1578980,1579136,1579294,1579466,1579621,1579778,1579949,1580098,1580257,1580411,1580568,1580723,1580877,1581032,1581185,1581342,1581497,1581649,1581803,1581961,1582119,1582279,1582437,1582595,1582756,1582917,1583074,1583232,1583390,1583546,1583703,1583860,1584019,1584179,1584338,1584497,1584659,1584821,1584980,1585143,1585305,1585464,1585621,1585778,1585938,1586095,1586253,1586411,1586571,1586730,1586890,1587046,1587200,1587361,1587514,1587601,1587673,1587823,1587973,1588120,1588267,1588414,1588565,1588718,1588871,1589021,1589176,1589332,1589486,1589637,1589788,1589941,1590096,1590254,1590415,1590579,1590745,1590908,1591078,1591248,1591418,1591586,1591753,1591919,1592090,1592254,1592419,1592586,1592754,1592924,1593042,1593080,1593242,1593401,1593559,1593718,1593821,1593881,1594050,1594210,1594365,1594535,1594698,1594864,1595033,1595207,1595379,1595548,1595720,1595810,1595884,1596049,1596211,1596379,1596544,1596713,1596898,1597074,1597251,1597422,1597595,1597770,1597945,1598120,1598290,1598461,1598635,1598806,1598977,1599150,1599325,1599496,1599667,1599836,1600002,1600162,1600320,1600481,1600641,1600800,1600966,1601117,1601278,1601441,1601610,1601774,1601942,1602108,1602269,1602431,1602592,1602758,1602926,1603096,1603121,1603263,1603430,1603607,1603785,1603962,1604133,1604306,1604472,1604639,1604805,1604972,1605136,1605295,1605461,1605628,1605798,1605970,1606137,1606307,1606478,1606647,1606815,1606988,1607155,1607324,1607489,1607655,1607817,1607975,1608135,1608293,1608377,1608458,1608612,1608772,1608932,1609103,1609274,1609445,1609613,1609789,1609962,1610131,1610296,1610459,1610619,1610780,1610928,1611081,1611244,1611402,1611568,1611731,1611897,1612063,1612233,1612399,1612569,1612741,1612916,1613087,1613254,1613421,1613585,1613747,1613909,1614074,1614242,1614412,1614583,1614753,1614928,1615107,1615281,1615451,1615622,1615795,1615967,1616138,1616302,1616465,1616628,1616786,1616942,1617109,1617267,1617431,1617598,1617761,1617924,1618092,1618255,1618414,1618577,1618735,1618892,1619049,1619210,1619372,1619538,1619703,1619868,1620034,1620201,1620363,1620525,1620681,1620837,1620988,1621132,1621293,1621449,1621610,1621774,1621934,1622096,1622259,1622423,1622585,1622749,1622849,1623069,1623220,1623376,1623529,1623686,1623843,1623999,1624155,1624311,1624466,1624620,1624771,1624923,1625075,1625231,1625380,1625531,1625684,1625835,1625985,1626137,1626298,1626446,1626599,1626754,1626907,1627060,1627215,1627361,1627514,1627662,1627809,1627957,1628104,1628254,1628402,1628552,1628699,1628849,1628999,1629152,1629306,1629458,1629614,1629768,1629921,1630073,1630224,1630375,1630527,1630678,1630827,1630979,1631128,1631279,1631428,1631578,1631727,1631878,1632027,1632330,1632479,1632630,1632725,1632752,1632789,1632934,1633087,1633240,1633393,1633547,1633700,1633856,1634006,1634155,1634305,1634452,1634599,1634747,1634896,1635047,1635199,1635349,1635500,1635648,1635795,1635939,1636090,1636243,1636396,1636542,1636617,1636843,1636979,1637120,1637264,1637406,1637553,1637693,1637837,1637978,1638122,1638265,1638408,1638552,1638697,1638843,1638987,1639131,1639285,1639407,1639503,1639570,1639714,1639861,1640003,1640145,1640287,1640429,1640572,1640715,1640861,1641008,1641158,1641309,1641459,1641607,1641757,1641906,1642056,1642203,1642350,1642497,1642642,1642791,1642938,1643092,1643234,1643381,1643528,1643680,1643825,1643973,1644120,1644271,1644419,1644570,1644722,1644872,1645025,1645175,1645327,1645478,1645629,1645781,1645931,1646081,1646232,1646385,1646528,1646674,1646818,1646966,1647105,1647250,1647397,1647552,1647724,1647910,1648093,1648274,1648451,1648624,1648790,1648957,1649121,1649280,1649438,1649592,1649744,1649896,1650047,1650195,1650340,1650485,1650629,1650772,1650915,1651057,1651200,1651343,1651490,1651641,1651791,1651942,1652095,1652248,1652403,1652559,1652713,1652866,1653024,1653183,1653339,1653495,1653657,1653815,1653973,1654132,1654293,1654451,1654611,1654771,1654929,1655084,1655243,1655406,1655569,1655744,1655898,1656055,1656215,1656373,1656530,1656686,1656840,1656994,1657146,1657300,1657451,1657605,1657759,1657915,1658072,1658230,1658387,1658545,1658704,1658859,1659017,1659176,1659334,1659488,1659645,1659802,1659962,1660121,1660278,1660437,1660595,1660753,1660909,1661066,1661220,1661372,1661526,1661680,1661837,1661994,1662152,1662310,1662467,1662628,1662789,1662952,1663119,1663284,1663440,1663604,1663759,1663915,1664072,1664233,1664394,1664558,1664713,1664877,1665028,1665203,1665351,1665509,1665667,1665827,1665987,1666155,1666312,1666477,1666639,1666792,1666973,1667143,1667310,1667478,1667649,1667817,1667982,1668156,1668311,1668480,1668649,1668814,1668981,1669150,1669317,1669482,1669645,1669811,1669978,1670151,1670315,1670490,1670664,1670833,1671014,1671174,1671344,1671514,1671695,1671879,1672070,1672353,1672443,1672623,1672799,1672971,1673148,1673331,1673504,1673676,1673857,1674011,1674187,1674360,1674530,1674705,1674874,1675045,1675219,1675383,1675556,1675730,1675903,1676078,1676263,1676450,1676634,1676820,1676847,1677013,1677200,1677392,1677757,1677951,1678143,1678334,1678527,1678716,1678915,1679092,1679273,1679442,1679618,1679786,1679951,1680108,1680265,1680429,1680568,1680715,1680860,1681002,1681142,1681280,1681417,1681554,1681690,1681830,1681978,1682106,1682324,1682685,1682833,1682982,1683131,1683282,1683432,1683583,1683733,1683880,1684033,1684183,1684335,1684486,1684634,1684790,1684944,1685094,1685244,1685395,1685546,1685696,1685847,1685995,1686143,1686291,1686442,1686492,1686592,1686740,1686890,1687042,1687189,1687340,1687491,1687640,1687788,1687935,1688082,1688230,1688387,1688529,1688679,1689123,1689271,1689424,1689575,1689726,1689873,1690022,1690168,1690315,1690467,1690618,1690780,1690941,1691101,1691268,1691441,1691614,1691779,1691944,1692111,1692273,1692434,1692591,1692751,1692910,1693067,1693226,1693387,1693546,1693699,1693854,1694014,1694174,1694331,1694486,1694643,1694798,1694952,1695107,1695259,1695413,1695572,1695739,1695900,1696054,1696207,1696363,1696525,1696674,1696839,1696893,1696996,1697146,1697406,1697476,1697637,1697794,1697965,1698124,1698291,1698458,1698633,1698725,1698807,1698883,1698977,1699319,1699491,1699667,1699837,1700003,1700164,1700323,1700483,1700644,1700795,1700959,1701118,1701278,1701438,1701594,1701753,1701912,1702067,1702222,1702379,1702535,1702695,1702866,1702896,1703024,1703190,1703325,1703498,1703664,1703817,1703973,1704134,1704294,1704450,1704616,1704782,1704943,1705119,1705289,1705454,1705556,1705629,1705789,1705951,1706112,1706275,1706432,1706590,1706743,1706898,1707051,1707203,1707359,1707516,1707675,1707833,1707906,1708004,1708158,1708248,1708476,1708635,1708797,1708969,1709132,1709299,1709473,1709644,1709810,1709978,1710145,1710310,1710475,1710638,1710798,1710960,1711123,1711288,1711451,1711612,1711772,1711930,1712088,1712247,1712398,1712555,1712706,1712859,1713015,1713171,1713327,1713481,1713633,1713786,1713943,1714103,1714264,1714423,1714577,1714730,1714887,1715043,1715199,1715354,1715510,1715665,1715818,1715970,1716121,1716270,1716421,1716575,1716730,1716888,1717046,1717204,1717360,1717518,1717680,1717833,1717988,1718149,1718316,1718640,1718673,1718803,1718958,1719003,1719114,1719268,1719421,1719571,1719722,1720027,1720142,1720173,1720333,1720486,1720642,1720801,1720961,1721124,1721284,1721445,1721600,1721757,1721911,1722068,1722226,1722390,1722551,1722711,1722870,1723032,1723196,1723359,1723523,1723683,1723850,1724018,1724185,1724340,1724499,1724659,1724826,1724989,1725155,1725327,1725504,1725691,1725874,1726054,1726238,1726422,1726603,1726785,1726948,1727119,1727288,1727451,1727609,1727762,1727944,1728106,1728270,1728433,1728595,1728754,1728915,1729071,1729174,1729228,1729394,1729435,1729558,1729653,1729733,1729890,1730058,1730082,1730241,1730406,1730579,1730751,1730918,1731087,1731255,1731420,1731590,1731757,1731922,1732086,1732249,1732414,1732575,1732738,1732895,1733051,1733211,1733376,1733532,1733692,1733861,1734162,1734322,1734405,1734467,1734636,1734790,1734945,1734968,1735100,1735253,1735403,1735563,1735868,1735964,1736027,1736171,1736327,1736479,1736631,1736786,1736942,1737100,1737253,1737412,1737571,1737733,1737901,1738056,1738219,1738382,1738544,1738707,1738866,1739028,1739192,1739355,1739517,1739680,1739846,1740013,1740179,1740342,1740508,1740671,1740837,1740993,1741156,1741316,1741480,1741641,1741803,1741969,1742136,1742307,1742473,1742641,1742807,1742967,1743127,1743282,1743435,1743585,1743735,1743884,1744039,1744200,1744363,1744528,1744693,1744857,1745023,1745191,1745355,1745518,1745681,1745847,1746011,1746171,1746333,1746496,1746661,1746827,1746991,1747154,1747321,1747489,1747655,1747816,1747977,1748139,1748302,1748459,1748616,1748771,1748927,1749085,1749244,1749402,1749565,1749729,1749894,1750055,1750218,1750380,1750543,1750707,1750870,1751032,1751195,1751359,1751521,1751679,1751840,1751999,1752160,1752316,1752470,1752626,1752784,1752950,1753111,1753276,1753442,1753610,1753776,1753943,1754105,1754270,1754436,1754600,1754761,1754925,1755091,1755259,1755426,1755596,1755768,1755934,1756096,1756264,1756424,1756591,1756758,1756932,1757110,1757288,1757466,1757649,1757835,1758018,1758206,1758391,1758566,1758744,1758843,1758873,1758915,1759098,1759165,1759584,1759762,1759990,1760013,1760094,1760249,1760419,1760575,1760738,1760901,1761072,1761237,1761395,1761559,1761723,1761888,1762060,1762230,1762406,1762584,1762768,1762949,1763127,1763310,1763489,1763666,1763843,1764011,1764183,1764303,1764355,1764524,1764687,1764857,1765025,1765186,1765349,1765515,1765688,1765845,1766011,1766182,1766352,1766523,1766688,1766852,1767016,1767167,1767326,1767475,1767623,1767775,1767926,1768083,1768359,1768607,1768780,1768950,1769114,1769278,1769439,1769599,1769760,1769924,1770088,1770251,1770413,1770571,1770740,1770906,1771066,1771230,1771392,1771555,1771716,1771877,1772039,1772202,1772359,1772519,1772678,1772834,1772991,1773148,1773305,1773456,1773609,1773763,1773918,1774074,1774227,1774378,1774529,1774682,1774831,1774981,1775136,1775284,1775440,1775592,1775747,1775896,1776061,1776215,1776375,1776530,1776676,1777089,1777143,1777293,1777441,1777734,1777889,1778036,1778183,1778334,1778488,1778639,1778791,1778945,1779095,1779243,1779394,1779541,1779686,1779827,1779970,1780109,1780248,1780389,1780528,1780669,1780809,1780954,1781097,1781241,1781386,1781534,1781680,1781825,1781972,1782119,1782267,1782414,1782560,1782703,1782849,1782993,1783138,1783286,1783437,1783586,1783737,1783887,1783971,1784029,1784133,1784323,1784469,1784619,1784766,1784920,1785069,1785196,1785366,1785521,1785666,1785814,1785960,1786110,1786262,1786419,1786580,1786745,1786909,1787072,1787231,1787388,1787542,1787695,1787843,1787994,1788144,1788298,1788448,1788599,1788754,1788913,1789080,1789244,1789348,1789410,1789572,1789702,1789732,1789894,1790054,1790211,1790368,1790527,1790681,1790833,1790985,1791139,1791290,1791440,1791590,1791742,1791890,1792042,1792192,1792347,1792491,1792641,1792791,1792938,1793086,1793232,1793377,1793522,1793670,1793818,1793967,1794118,1794265,1794415,1794568,1794719,1794873,1795024,1795176,1795329,1795483,1795631,1795778,1795926,1796071,1796214,1796358,1796506,1796654,1796807,1796959,1797111,1797264,1797415,1797567,1797718,1797866,1798017,1798170,1798324,1798477,1798629,1798782,1798936,1799088,1799240,1799390,1799536,1799686,1799833,1799980,1800127,1800276,1800425,1800578,1800730,1800881,1801034,1801190,1801346,1801502,1801656,1801824,1801976,1802135,1802293,1802452,1802610,1802650,1802736,1802921,1803077,1803232,1803384,1803538,1803700,1803845,1803890,1803999,1804151,1804304,1804456,1804614,1804776,1804921,1805093,1805257,1805422,1805584,1805749,1805919,1805967,1806079,1806237,1806394,1806548,1806700,1806854,1807006,1807158,1807314,1807469,1807622,1807779,1807938,1808097,1808257,1808416,1808578,1808738,1808899,1809062,1809228,1809395,1809565,1809730,1809894,1810056,1810219,1810379,1810537,1810695,1810845,1810998,1811149,1811296,1811444,1811591,1811737,1811883,1812035,1812180,1812330,1812478,1812630,1812783,1812935,1813087,1813237,1813386,1813544,1813679,1813832,1813986,1814139,1814293,1814453,1814610,1814691,1814926,1815087,1815246,1815408,1815567,1815676,1815717,1815883,1816041,1816201,1816359,1816517,1816680,1816843,1817008,1817173,1817341,1817411,1817503,1817662,1817822,1817981,1818142,1818244,1818299,1818453,1818612,1818773,1818934,1818981,1819091,1819253,1819411,1819574,1819729,1819886,1820046,1820204,1820357,1820519,1820667,1820823,1820977,1821130,1821285,1821438,1821590,1821743,1821898,1822057,1822218,1822378,1822544,1822710,1822872,1823035,1823201,1823366,1823532,1823700,1823866,1824026,1824183,1824337,1824487,1824635,1824784,1824926,1825068,1825208,1825351,1825491,1825633,1825778,1825922,1826070,1826216,1826362,1826509,1826655,1826802,1826947,1827091,1827233,1827377,1827522,1827673,1827825,1827971,1828122,1828269,1828422,1828583,1828732,1828883,1829038,1829194,1829350,1829433,1829664,1829822,1829982,1830143,1830300,1830458,1830618,1830773,1830934,1831095,1831255,1831413,1831567,1831723,1831874,1832028,1832181,1832334,1832486,1832635,1832780,1832928,1833069,1833210,1833353,1833498,1833642,1833794,1833947,1834098,1834250,1834403,1834551,1834704,1834854,1835007,1835159,1835182,1835305,1835451,1835537,1835594,1835696,1835739,1835881,1836023,1836168,1836317,1836470,1836618,1836776,1836928,1836966,1837079,1837227,1837279,1837376,1837522,1837667,1837813,1837960,1838106,1838259,1838415,1838571,1838720,1838871,1839023,1839182,1839340,1839499,1839652,1839806,1839963,1840117,1840269,1840427,1840589,1840754,1840924,1841103,1841280,1841460,1841645,1841823,1841998,1842171,1842344,1842512,1842678,1842845,1843009,1843171,1843338,1843507,1843674,1843843,1844013,1844184,1844351,1844520,1844686,1844855,1845175,1845332,1845486,1845628,1845778,1845928,1846083,1846240,1846399,1846555,1846715,1846878,1847042,1847211,1847374,1847539,1847706,1847869,1848032,1848190,1848349,1848506,1848662,1848812,1848958,1849112,1849262,1849409,1849560,1849714,1849867,1850027,1850188,1850351,1850517,1850682,1850843,1851008,1851170,1851328,1851484,1851642,1851814,1851960,1852124,1852288,1852449,1852604,1852756,1852845,1852918,1853066,1853226,1853375,1853527,1853681,1853840,1854001,1854161,1854321,1854483,1854650,1854824,1854992,1855157,1855324,1855493,1855665,1855831,1855998,1856165,1856331,1856496,1856662,1856827,1856995,1857162,1857332,1857493,1857651,1857811,1857815,1857896,1857964,1858114,1858265,1858414,1858566,1858717,1858875,1859043,1859219,1859396,1859574,1859741,1859917,1860087,1860254,1860423,1860591,1860759,1860929,1861012,1861092,1861259,1861425,1861589,1861756,1861934,1862092,1862259,1862417,1862577,1862738,1862885,1863035,1863185,1863339,1863494,1863649,1863742,1863807,1863962,1864119,1864157,1864274,1864427,1864519,1864583,1864726,1864881,1865038,1865188,1865341,1865642,1865795,1865952,1866107,1866263,1866418,1866577,1866732,1866891,1867048,1867201,1867355,1867507,1867661,1867814,1867968,1868125,1868282,1868442,1868602,1868765,1868926,1869082,1869239,1869392,1869472,1869541,1869692,1869846,1869995,1870147,1870305,1870471,1870636,1870803,1870970,1871136,1871299,1871464,1871627,1871787,1871946,1872104,1872265,1872429,1872593,1872750,1872907,1873065,1873223,1873386,1873550,1873715,1873879,1873921,1873984,1874044,1874099,1874209,1874371,1874535,1874699,1874862,1875017,1875178,1875333,1875489,1875643,1875800,1875959,1876117,1876275,1876436,1876595,1876755,1876913,1877069,1877224,1877379,1877530,1877681,1877831,1877981,1878134,1878289,1878442,1878599,1878757,1878918,1879078,1879235,1879396,1879558,1879715,1879871,1880028,1880186,1880342,1880497,1880649,1880799,1880951,1881103,1881255,1881409,1881564,1881721,1881874,1882031,1882184,1882337,1882489,1882638,1882789,1882943,1883096,1883250,1883409,1883569,1883733,1883891,1884049,1884210,1884369,1884522,1884677,1884831,1884985,1885141,1885301,1885461,1885625,1885780,1885940,1886097,1886251,1886408,1886567,1886725,1886892,1887036,1887185,1887334,1887481,1887629,1887777,1887927,1888081,1888234,1888386,1888538,1888685,1888837,1888987,1889131,1889277,1889424,1889571,1889718,1889867,1890019,1890169,1890323,1890477,1890636,1890794,1890954,1891118,1891297,1891439,1891592,1891744,1891898,1892054,1892211,1892371,1892534,1892688,1892845,1893005,1893167,1893330,1893490,1893654,1893822,1893986,1894150,1894315,1894486,1894654,1894818,1894982,1895148,1895318,1895485,1895652,1895818,1895987,1896151,1896318,1896484,1896647,1896809,1896971,1897132,1897290,1897382,1897445,1897588,1897745,1897895,1898047,1898198,1898353,1898510,1898673,1898826,1898986,1899155,1899324,1899494,1899659,1899827,1899986,1900147,1900310,1900474,1900635,1900795,1900956,1901110,1901229,1901266,1901425,1901583,1901739,1901900,1902062,1902225,1902383,1902550,1902713,1902873,1903033,1903194,1903354,1903514,1903672,1903832,1903993,1904155,1904313,1904480,1904639,1904778,1904803,1904925,1904951,1905009,1905081,1905227,1905374,1905526,1905678,1905831,1905995,1906148,1906307,1906469,1906633,1906798,1906958,1907170,1907290,1907447,1907598,1907637,1907915,1908071,1908227,1908390,1908553,1908667,1908876,1909039,1909199,1909359,1909520,1909680,1909838,1909996,1910158,1910317,1910350,1910475,1910634,1910794,1910953,1911112,1911269,1911429,1911601,1911698,1911941,1912102,1912279,1912435,1912595,1912764,1912916,1913072,1913229,1913387,1913543,1913696,1913848,1914001,1914157,1914312,1914465,1914621,1914776,1914939,1915090,1915245,1915393,1915545,1915696,1915855,1915991,1916137,1916283,1916431,1916581,1916736,1916891,1917046,1917199,1917354,1917514,1917673,1917831,1917987,1918147,1918296,1918450,1918605,1918762,1918918,1919077,1919235,1919397,1919556,1919711,1919866,1920023,1920181,1920338,1920495,1920615,1920649,1920804,1920953,1921258,1921411,1921566,1921721,1921757,1921873,1922029,1922186,1922344,1922497,1922656,1922818,1922972,1923131,1923291,1923446,1923608,1923770,1923931,1924090,1924248,1924404,1924559,1924671,1924710,1924788,1924864,1925015,1925165,1925321,1925460,1925620,1925779,1925928,1926082,1926229,1926376,1926521,1926669,1926822,1926965,1927116,1927265,1927417,1927573,1927733,1927900,1928062,1928225,1928385,1928544,1928706,1928869,1929033,1929192,1929354,1929515,1929674,1929829,1929979,1930124,1930272,1930419,1930559,1930701,1930845,1930990,1931138,1931290,1931448,1931606,1931758,1931913,1932067,1932223,1932376,1932525,1932675,1932823,1932969,1933122,1933261,1933284,1933335,1933404,1933556,1933695,1933842,1933989,1934140,1934293,1934443,1934597,1934752,1934903,1935062,1935220,1935376,1935538,1935699,1935861,1936024,1936185,1936352,1936508,1936660,1936815,1936968,1937119,1937267,1937415,1937565,1937717,1937871,1938024,1938181,1938315,1938335,1938490,1938643,1938793,1938943,1939093,1939186,1939242,1939389,1939547,1939696,1939851,1940001,1940153,1940307,1940461,1940616,1940775,1940934,1941098,1941249,1941409,1941568,1941726,1941882,1942040,1942206,1942354,1942510,1942666,1942823,1942985,1943145,1943305,1943459,1943616,1943769,1943923,1944068,1944219,1944370,1944525,1944675,1944747,1944828,1944926,1944976,1945136,1945292,1945450,1945613,1945763,1945818,1945919,1946080,1946230,1946391,1946482,1946553,1946713,1946872,1947031,1947188,1947346,1947502,1947660,1947820,1947979,1948139,1948301,1948466,1948636,1948808,1948978,1949152,1949325,1949496,1949667,1949829,1949992,1950160,1950307,1950462,1950771,1950918,1951067,1951214,1951297,1951363,1951397,1951515,1951671,1951826,1951983,1952145,1952306,1952471,1952632,1952799,1952966,1953132,1953297,1953460,1953622,1953785,1953948,1954108,1954270,1954437,1954586,1954744,1954899,1955055,1955199,1955360,1955511,1955663,1955818,1955979,1956136,1956297,1956457,1956622,1956787,1956954,1957115,1957277,1957438,1957599,1957765,1957934,1958100,1958259,1958418,1958579,1958742,1958907,1959079,1959239,1959408,1959564,1959728,1959890,1960047,1960221,1960364,1960521,1960678,1960835,1960993,1961152,1961311,1961472,1961626,1961787,1961938,1962096,1962243,1962393,1962543,1962694,1962844,1962994,1963144,1963295,1963447,1963607,1963748,1963899,1964050,1964197,1964346,1964495,1964645,1964796,1964947,1965097,1965251,1965407,1965560,1965715,1965871,1966032,1966193,1966354,1966521,1966690,1966857,1967023,1967190,1967358,1967518,1967679,1967841,1968002,1968148,1968316,1968472,1968627,1968778,1968929,1969081,1969233,1969386,1969539,1969693,1969847,1969999,1970154,1970307,1970461,1970618,1970779,1970937,1971097,1971260,1971590,1971754,1971918,1972080,1972241,1972401,1972562,1972724,1972879,1973033,1973186,1973287,1973337,1973483,1973633,1973783,1973935,1974092,1974252,1974411,1974566,1974723,1974879,1975037,1975195,1975358,1975525,1975691,1975856,1976021,1976182,1976339,1976499,1976530,1976655,1976795,1976889,1976948,1977100,1977249,1977405,1977563,1977728,1977895,1978067,1978240,1978413,1978583,1978755,1978918,1979091,1979250,1979408,1979562,1979710,1979862,1980011,1980160,1980312,1980466,1980622,1980776,1980812,1980923,1981079,1981227,1981379,1981544,1981710,1981882,1982053,1982220,1982383,1982551,1982717,1982878,1983041,1983202,1983361,1983519,1983677,1983798,1983834,1983993,1984148,1984304,1984461,1984617,1984770,1984927,1985082,1985238,1985395,1985551,1985706,1985856,1986008,1986156,1986304,1986451,1986574,1986599,1986746,1986888,1987187,1987337,1987487,1987635,1987713,1987778,1987934,1988086,1988242,1988398,1988557,1988719,1988879,1989041,1989197,1989354,1989508,1989660,1989812,1989960,1990020,1990052,1990100,1990250,1990395,1990541,1990694,1990845,1991001,1991154,1991315,1991479,1991638,1991795,1991955,1992113,1992267,1992420,1992571,1992721,1992872,1993021,1993173,1993324,1993467,1993624,1993779,1993940,1994095,1994263,1994426,1994585,1994745,1994904,1995062,1995220,1995377,1995535,1995691,1995846,1996003,1996154,1996304,1996454,1996601,1996750,1996902,1997054,1997203,1997350,1997501,1997639,1997784,1997929,1998074,1998219,1998367,1998514,1998658,1998809,1998960,1999112,1999266,1999419,1999577,1999734,1999888,2000041,2000190,2000338,2000481,2000626,2000770,2000917,2001063,2001210,2001360,2001510,2001658,2001809,2001960,2002116,2002276,2002435,2002592,2002743,2002894,2003042,2003188,2003336,2003484,2003631,2003779,2003925,2004071,2004220,2004369,2004519,2004675,2004830,2004984,2005137,2005289,2005438,2005582,2005728,2005875,2006022,2006165,2006310,2006453,2006598,2006745,2006892,2007038,2007186,2007334,2007486,2007635,2007783,2007931,2008080,2008233,2008381,2008533,2008680,2008831,2008989,2009132,2009281,2009722,2009871,2010006,2010148,2010291,2010433,2010577,2010720,2010865,2011010,2011154,2011295,2011440,2011580,2011722,2011867,2012014,2012158,2012303,2012447,2012597,2012743,2012890,2013042,2013196,2013356,2013518,2013675,2013835,2013995,2014154,2014306,2014461,2014613,2014767,2014920,2015071,2015221,2015372,2015524,2015674,2015824,2015975,2016126,2016275,2016425,2016574,2016721,2016869,2017012,2017158,2017304,2017448,2017592,2017736,2017880,2018022,2018163,2018301,2018440,2018577,2018713,2018851,2018987,2019129,2019275,2019421,2019570,2019725,2019877,2020029,2020179,2020328,2020475,2020622,2020768,2020917,2021066,2021217,2021366,2021518,2021674,2021827,2021983,2022137,2022293,2022454,2022617,2022780,2022937,2023095,2023257,2023422,2023587,2023750,2023920,2024096,2024273,2024445,2024621,2024800,2024971,2025135,2025302,2025466,2025626,2025783,2025943,2026099,2026254,2026409,2026565,2026715,2026870,2026887,2026918,2027057,2027229,2027402,2027571,2027741,2027910,2028075,2028237,2028402,2028569,2028742,2028910,2029065,2029072,2029247,2029417,2029587,2029758,2029931,2030105,2030281,2030446,2030618,2030787,2030949,2031105,2031259,2031408,2031556,2031702,2031845,2031986,2032124,2032269,2032400,2032551,2032628,2032692,2032833,2032975,2033121,2033263,2033408,2033554,2033703,2033847,2033994,2034141,2034289,2034434,2034573,2034716,2034857,2034995,2035138,2035279,2035424,2035481,2035569,2035714,2035863,2036009,2036159,2036312,2036463,2036617,2036772,2036930,2037089,2037247,2037403,2037563,2037725,2037888,2038043,2038203,2038366,2038528,2038688,2038846,2039011,2039172,2039323,2039474,2039630,2039782,2039936,2040093,2040251,2040409,2040569,2040732,2040894,2041056,2041218,2041379,2041538,2041692,2041847,2042003,2042157,2042313,2042349,2042466,2042617,2042771,2042925,2043083,2043245,2043411,2043577,2043742,2043908,2044073,2044238,2044400,2044560,2044720,2044830,2044876,2045000,2045035,2045187,2045337,2045494,2045649,2045806,2045956,2046111,2046266,2046423,2046578,2046730,2046887,2047040,2047193,2047350,2047506,2047665,2047824,2047980,2048138,2048295,2048450,2048607,2048763,2048919,2049077,2049233,2049388,2049545,2049702,2049858,2050012,2050168,2050325,2050480,2050634,2050789,2050947,2051102,2051257,2051412,2051565,2051719,2051869,2052020,2052172,2052324,2052477,2052629,2052778,2052927,2053076,2053225,2053375,2053524,2053675,2053826,2053977,2054126,2054274,2054421,2054570,2054719,2054867,2055017,2055167,2055319,2055472,2055623,2055776,2055928,2056081,2056233,2056386,2056537,2056687,2056831,2056975,2057114,2057255,2057395,2057539,2057687,2057845,2057986,2058131,2058280,2058431,2058582,2058739,2058897,2059049,2059202,2059355,2059508,2059662,2059820,2059979,2060138,2060293,2060446,2060603,2060748,2060899,2061054,2061214,2061379,2061542,2061702,2061864,2062031,2062194,2062304,2062355,2062515,2062669,2062825,2062980,2063142,2063322,2063472,2063635,2063795,2063963,2064121,2064283,2064433,2064586,2064737,2064885,2065038,2065185,2065330,2065497,2065647,2065806,2065960,2066118,2066280,2066441,2066602,2066769,2066940,2067111,2067273,2067431,2067588,2067743,2067899,2068056,2068212,2068374,2068535,2068698,2068856,2069013,2069169,2069325,2069479,2069632,2069783,2069934,2070086,2070235,2070386,2070534,2070682,2070833,2070983,2071134,2071284,2071434,2071585,2071734,2071881,2072027,2072174,2072318,2072463,2072607,2072750,2072891,2073033,2073173,2073313,2073452,2073590,2073728,2073866,2074004,2074143,2074282,2074419,2074557,2074699,2074840,2074980,2075117,2075258,2075389,2075524,2075663,2075794,2075931,2076069,2076207,2076343,2076481,2076624,2076754,2076890,2077026,2077163,2077300,2077432,2077569,2077706,2077844,2077983,2078120,2078262,2078402,2078542,2078571,2078686,2078833,2078864,2078978,2079123,2079268,2079416,2079561,2079705,2079849,2079995,2080142,2080290,2080439,2080590,2080739,2080890,2081043,2081195,2081346,2081496,2081648,2081800,2081952,2082102,2082253,2082406,2082558,2082709,2082863,2083015,2083167,2083318,2083468,2083585,2083775,2083802,2083897,2084060,2084205,2084346,2084494,2084639,2084781,2084923,2085065,2085208,2085350,2085494,2085617,2085705,2085766,2085907,2086049,2086189,2086334,2086482,2086634,2086789,2086941,2087094,2087251,2087405,2087558,2087711,2087862,2088019,2088167,2088317,2088466,2088626,2088777,2088928,2089076,2089165,2089221,2089368,2089509,2089532,2089661,2089798,2089945,2090102,2090260,2090415,2090576,2090718,2090884,2091039,2091195,2091309,2091352,2091500,2091658,2091815,2092084,2092281,2092438,2092599,2092754,2092906,2093059,2093215,2093374,2093522,2093675,2093827,2093978,2094139,2094288,2094451,2094615,2094775,2094937,2095101,2095272,2095423,2095517,2095580,2095734,2095891,2096050,2096208,2096368,2096527,2096688,2096850,2097012,2097182,2097350,2097525,2097705,2097885,2098064,2098238,2098335,2098579,2098747,2098913,2099070,2099228,2099384,2099538,2099696,2099849,2099950,2099997,2100149,2100296,2100445,2100590,2100734,2100881,2101027,2101165,2101312,2101469,2101616,2101768,2101793,2101927,2102093,2102260,2102424,2102586,2102746,2102907,2103064,2103220,2103379,2103534,2103690,2103845,2104002,2104160,2104319,2104482,2104644,2104809,2104970,2105131,2105286,2105438,2105588,2105741,2105895,2106042,2106193,2106347,2106503,2106659,2106816,2106971,2107126,2107279,2107428,2107578,2107727,2107875,2108024,2108171,2108318,2108466,2108612,2108759,2108904,2109051,2109192,2109334,2109452,2109609,2109754,2109892,2110042,2110197,2110349,2110508,2110667,2110823,2110988,2111145,2111309,2111476,2111631,2111786,2111936,2112085,2112238,2112378,2112528,2112678,2112828,2112976,2113126,2113275,2113425,2113578,2113731,2113884,2114045,2114193,2114346,2114498,2114648,2114795,2114943,2115088,2115249,2115386,2115535,2115684,2115835,2115990,2116141,2116293,2116447,2116599,2116750,2116902,2117054,2117209,2117363,2117514,2117666,2117816,2117962,2118112,2118263,2118413,2118563,2118714,2118867,2119020,2119172,2119323,2119473,2119623,2119774,2119922,2120072,2120221,2120367,2120514,2120657,2120799,2120944,2121091,2121238,2121387,2121536,2121687,2121835,2122133,2122280,2122427,2122571,2122716,2122860,2123004,2123147,2123292,2123440,2123591,2123743,2123897,2124050,2124204,2124358,2124510,2124661,2124810,2124958,2125103,2125248,2125393,2125537,2125683,2125831,2125980,2126133,2126286,2126442,2126594,2126750,2126972,2127056,2127209,2127361,2127510,2127659,2127807,2127956,2128102,2128251,2128402,2128555,2128710,2128864,2129018,2129173,2129326,2129479,2129634,2129783,2129935,2130086,2130240,2130397,2130552,2130706,2130859,2131012,2131166,2131317,2131465,2131615,2131773,2131916,2132073,2132226,2132381,2132535,2132690,2132847,2133003,2133099,2133313,2133474,2133571,2133628,2133795,2133955,2134115,2134204,2134273,2134431,2134586,2134739,2134894,2135041,2135192,2135338,2135484,2135630,2135774,2135917,2136061,2136208,2136361,2136525,2136679,2136833,2136989,2137148,2137308,2137467,2137625,2137783,2137945,2138096,2138246,2138394,2138488,2138545,2138691,2138837,2138884,2138982,2139126,2139270,2139408,2139550,2139694,2139842,2139992,2140135,2140278,2140375,2140438,2140589,2140742,2140773,2140900,2141062,2141234,2141398,2141565,2141724,2141896,2142059,2142224,2142391,2142548,2142707,2142860,2143013,2143166,2143318,2143467,2143621,2143773,2143923,2144075,2144226,2144378,2144401,2144527,2144675,2144822,2144969,2145118,2145281,2145426,2145574,2145726,2145878,2145974,2146175,2146325,2146471,2146619,2146771,2146926,2147076,2147229,2147381,2147532,2147683,2147831,2147856,2147972,2148115,2148258,2148400,2148549,2148705,2148875,2149034,2149200,2149364,2149526,2149683,2149838,2149990,2150141,2150296,2150455,2150620,2150783,2150942,2151108,2151271,2151433,2151594,2151754,2151914,2152068,2152230,2152390,2152547,2152709,2152871,2153034,2153196,2153356,2153514,2153668,2153816,2153962,2154108,2154254,2154402,2154554,2154704,2154854,2155004,2155159,2155310,2155464,2155616,2155767,2155915,2156058,2156202,2156343,2156486,2156633,2156776,2156921,2157068,2157215,2157362,2157513,2157665,2157816,2157968,2158118,2158266,2158415,2158565,2158716,2158868,2159021,2159171,2159322,2159475,2159629,2159779,2159929,2160078,2160227,2160377,2160530,2160684,2160840,2160995,2161150,2161305,2161463,2161625,2161790,2161952,2162117,2162282,2162446,2162608,2162770,2162926,2163079,2163230,2163387,2163547,2163706,2163860,2164014,2164164,2164314,2164465,2164616,2164771,2164928,2165084,2165241,2165396,2165554,2165714,2165874,2166033,2166193,2166352,2166506,2166661,2166813,2166963,2167114,2167263,2167409,2167558,2167702,2167847,2167997,2168146,2168298,2168450,2168602,2168757,2168910,2169058,2169206,2169351,2169496,2169641,2169787,2169934,2170080,2170230,2170378,2170530,2170683,2170838,2170993,2171148,2171303,2171460,2171618,2171775,2171930,2172085,2172242,2172398,2172554,2172709,2172864,2173018,2173172,2173326,2173478,2173629,2173779,2173929,2174079,2174230,2174378,2174529,2174679,2174831,2174982,2175134,2175286,2175439,2175593,2175746,2175897,2176047,2176197,2176342,2176488,2176632,2176778,2176921,2177065,2177207,2177347,2177490,2177627,2177767,2177906,2178043,2178180,2178317,2178451,2178586,2178722,2178860,2179000,2179136,2179275,2179418,2179559,2179702,2179846,2179990,2180140,2180292,2180436,2180584,2180733,2180876,2181028,2181163,2181307,2181450,2181599,2181743,2181889,2182035,2182181,2182325,2182471,2182618,2182761,2182904,2183047,2183189,2183333,2183475,2183621,2183768,2183918,2184065,2184213,2184362,2184509,2184655,2184801,2184946,2185095,2185239,2185385,2185533,2185678,2185828,2185976,2186121,2186264,2186406,2186547,2186685,2186823,2186963,2187110,2187239,2187379,2187520,2187664,2187815,2187966,2188130,2188290,2188451,2188610,2188763,2188926,2189076,2189230,2189383,2189534,2189689,2189836,2189986,2190135,2190282,2190427,2190569,2190715,2190861,2191008,2191154,2191298,2191448,2191595,2191743,2191891,2192039,2192187,2192338,2192485,2192635,2192783,2192934,2193082,2193227,2193377,2193518,2193659,2193801,2193943,2194086,2194228,2194374,2194524,2194679,2194830,2194982,2195141,2195295,2195450,2195603,2195755,2195909,2196059,2196141,2196207,2196359,2196509,2196658,2196806,2196954,2197105,2197254,2197402,2197552,2197702,2197852,2198002,2198152,2198303,2198452,2198600,2198747,2198896,2199042,2199184,2199326,2199469,2199609,2199768,2199840,2199888,2200025,2200160,2200296,2200432,2200570,2200709,2200882,2200992,2201128,2201272,2201411,2201554,2201701,2201848,2201994,2202142,2202289,2202438,2202597,2202741,2202889,2203035,2203182,2203330,2203477,2203625,2203776,2203926,2204077,2204226,2204376,2204526,2204676,2204829,2204983,2205140,2205297,2205454,2205613,2205772,2205930,2206086,2206241,2206393,2206543,2206690,2206834,2206981,2207127,2207272,2207423,2207570,2207720,2207873,2208024,2208174,2208328,2208477,2208628,2208778,2208930,2209084,2209237,2209392,2209549,2209703,2209861,2210022,2210183,2210343,2210501,2210658,2210817,2210975,2211131,2211288,2211443,2211600,2211756,2211914,2212070,2212225,2212378,2212532,2212687,2212839,2212989,2213142,2213294,2213445,2213598,2213752,2213909,2214075,2214236,2214392,2214551,2214704,2214872,2215027,2215180,2215337,2215491,2215649,2215809,2215960,2216116,2216273,2216431,2216590,2216748,2216905,2217063,2217221,2217378,2217535,2217690,2217846,2218007,2218164,2218322,2218479,2218637,2218795,2218953,2219109,2219264,2219420,2219581,2219728,2219882,2220036,2220190,2220343,2220497,2220652,2220809,2220961,2221115,2221269,2221423,2221575,2221724,2221874,2222023,2222170,2222321,2222469,2222615,2222763,2222912,2223061,2223209,2223356,2223514,2223659,2223809,2223960,2224111,2224259,2224410,2224567,2224719,2224872,2225023,2225175,2225326,2225472,2225617,2225760,2225903,2226042,2226183,2226333,2226468,2226612,2226757,2226909,2227060,2227212,2227369,2227523,2227679,2227835,2227982,2228139,2228294,2228447,2228604,2228760,2228915,2229070,2229222,2229374,2229525,2229674,2229823,2229969,2230112,2230255,2230396,2230540,2230683,2230830,2230976,2231120,2231266,2231413,2231562,2231714,2231868,2232020,2232174,2232328,2232483,2232638,2232945,2233099,2233250,2233406,2233560,2233711,2233858,2234008,2234155,2234298,2234448,2234601,2234757,2234917,2235081,2235238,2235397,2235557,2235710,2235859,2236009,2236159,2236307,2236454,2236515,2236601,2236747,2236891,2237041,2237130,2237183,2237336,2237485,2237628,2237773,2237919,2238065,2238213,2238365,2238522,2238682,2238842,2239003,2239167,2239332,2239497,2239659,2239822,2239985,2240145,2240306,2240461,2240617,2240773,2240926,2241087,2241234,2241394,2241529,2241684,2241830,2241977,2242122,2242267,2242413,2242556,2242687,2242842,2243000,2243135,2243268,2243409,2243555,2243685,2243822,2243956,2244095,2244239,2244384,2244528,2244671,2244813,2244953,2245091,2245229,2245369,2245510,2245652,2245796,2245939,2246084,2246228,2246303,2246373,2246519,2246664,2246810,2246953,2247039,2247095,2247240,2247383,2247529,2247674,2247821,2247968,2248117,2248267,2248415,2248563,2248711,2248859,2249007,2249168,2249306,2249456,2249599,2249742,2249890,2250034,2250178,2250327,2250477,2250631,2250784,2250940,2251247,2251396,2251546,2251846,2251999,2252150,2252302,2252457,2252613,2252769,2252927,2253081,2253233,2253384,2253551,2253686,2253830,2253978,2254127,2254277,2254427,2254576,2254723,2254867,2255011,2255152,2255295,2255441,2255589,2255738,2255890,2256039,2256186,2256333,2256479,2256623,2256762,2256903,2256925,2257042,2257181,2257323,2257464,2257545,2257605,2257751,2257894,2258041,2258189,2258327,2258475,2258615,2258761,2258898,2259035,2259177,2259306,2259441,2259575,2259709,2259844,2259980,2260118,2260260,2260401,2260549,2260683,2260823,2260965,2261108,2261254,2261405,2261550,2261698,2261846,2261992,2262140,2262288,2262434,2262582,2262729,2262877,2263024,2263170,2263315,2263462,2263611,2263762,2263902,2264046,2264192,2264338,2264482,2264627,2264774,2264921,2265070,2265219,2265369,2265521,2265675,2265828,2265982,2266131,2266282,2266432,2266581,2266730,2266881,2267032,2267187,2267336,2267487,2267639,2267790,2267943,2268089,2268235,2268381,2268527,2268674,2268788,2268820,2268962,2269123,2269274,2269425,2269578,2269733,2269884,2270037,2270187,2270336,2270486,2270631,2270778,2270926,2271072,2271219,2271365,2271510,2271661,2271806,2271952,2272102,2272248,2272395,2272541,2272689,2272837,2272986,2273135,2273287,2273440,2273590,2273742,2273893,2274044,2274193,2274343,2274494,2274643,2274793,2274943,2275094,2275245,2275396,2275546,2275697,2275850,2276000,2276148,2276445,2276598,2276752,2276901,2277053,2277206,2277361,2277514,2277666,2277859,2277921,2278126,2278276,2278427,2278571,2278724,2278871,2279018,2279165,2279309,2279453,2279598,2279741,2279885,2280027,2280161,2280315,2280464,2280605,2280750,2280899,2281049,2281200,2281350,2281496,2281640,2281789,2281933,2282077,2282221,2282364,2282507,2282658,2282794,2282937,2283080,2283224,2283369,2283513,2283659,2283806,2283951,2284098,2284239,2284382,2284530,2284605,2284677,2284828,2284979,2285128,2285278,2285432,2285581,2285731,2285876,2286018,2286159,2286299,2286438,2286577,2286716,2286856,2286995,2287137,2287279,2287421,2287566,2287709,2287854,2288000,2288145,2288289,2288434,2288578,2288719,2288858,2289000,2289270,2289406,2289542,2289680,2289820,2289963,2290109,2290256,2290408,2290568,2290725,2290886,2291040,2291203,2291326,2291354,2291512,2291674,2291835,2291893,2291942,2291994,2292151,2292309,2292463,2292620,2292776,2292935,2293081,2293236,2293389,2293543,2293693,2293847,2293996,2294161,2294326,2294489,2294653,2294816,2294976,2295129,2295284,2295439,2295591,2295746,2295904,2296062,2296221,2296381,2296541,2296702,2296859,2297016,2297172,2297329,2297484,2297641,2297796,2297951,2298104,2298258,2298410,2298560,2298713,2298865,2299019,2299084,2299169,2299324,2299474,2299624,2299775,2299922,2300075,2300228,2300381,2300535,2300691,2300852,2301008,2301165,2301322,2301478,2301629,2301781,2301934,2302081,2302227,2302375,2302522,2302668,2302816,2302960,2303105,2303252,2303400,2303544,2303686,2303835,2303971,2304111,2304251,2304390,2304526,2304662,2304801,2304939,2305079,2305227,2305364,2305502,2305644,2305787,2305929,2306074,2306218,2306364,2306513,2306659,2306806,2306950,2306974,2307092,2307237,2307382,2307527,2307671,2307815,2307963,2308107,2308256,2308400,2308546,2308690,2308833,2308975,2309117,2309248,2309336,2309533,2309676,2309819,2309963,2310105,2310249,2310396,2310540,2310689,2310832,2310976,2311127,2311279,2311427,2311462,2311575,2311735,2311903,2312070,2312222,2312380,2312535,2312690,2312849,2313005,2313161,2313315,2313460,2313614,2313771,2313915,2314060,2314213,2314360,2314510,2314662,2314816,2314974,2315138,2315302,2315452,2315612,2315730,2315770,2315931,2316088,2316242,2316400,2316556,2316714,2316876,2317038,2317203,2317370,2317539,2317705,2317866,2318178,2318326,2318474,2318610,2318764,2318913,2319062,2319366,2319517,2319669,2319821,2319975,2320287,2320443,2320602,2320761,2320913,2321070,2321223,2321373,2321523,2321673,2321819,2321966,2322110,2322252,2322393,2322534,2322672,2322811,2322945,2323090,2323223,2323357,2323773,2323832,2323895,2324027,2324161,2324296,2324432,2324566,2324702,2324838,2324978,2325139,2325228,2325394,2325533,2325673,2325814,2325961,2326107,2326259,2326407,2326551,2326703,2326858,2327013,2327167,2327322,2327475,2327627,2327777,2327929,2328080,2328231,2328383,2328535,2328688,2328842,2328993,2329145,2329295,2329445,2329593,2329741,2329887,2330034,2330182,2330330,2330479,2330625,2330774,2330920,2331066,2331214,2331358,2331502,2331645,2331791,2331937,2332088,2332223,2332360,2332504,2332649,2332792,2332942,2333088,2333240,2333394,2333551,2333711,2333873,2334037,2334201,2334366,2334527,2334690,2334856,2335023,2335187,2335354,2335522,2335690,2335857,2336025,2336186,2336345,2336502,2336658,2336811,2336971,2337119,2337281,2337441,2337607,2337774,2337942,2338112,2338285,2338459,2338632,2338806,2338976,2339143,2339310,2339476,2339641,2339808,2339973,2340138,2340299,2340461,2340622,2340782,2340943,2341102,2341262,2341421,2341579,2341736,2341890,2342045,2342198,2342353,2342509,2342664,2342819,2342979,2343133,2343291,2343443,2343599,2343762,2343926,2344087,2344253,2344421,2344590,2344758,2344927,2345093,2345261,2345418,2345582,2345745,2345904,2346067,2346226,2346391,2346542,2346698,2346853,2347012,2347160,2347316,2347468,2347623,2347781,2347927,2348079,2348391,2348541,2348698,2348858,2349022,2349185,2349350,2349507,2349665,2349822,2349973,2350128,2350283,2350440,2350592,2350757,2350918,2351079,2351242,2351403,2351560,2351725,2351891,2352053,2352218,2352385,2352552,2352714,2352878,2353040,2353199,2353358,2353518,2353674,2353830,2353986,2354145,2354305,2354464,2354623,2354784,2354944,2355104,2355262,2355419,2355571,2355722,2355867,2356013,2356158,2356297,2356441,2356581,2356720,2356858,2357002,2357275,2357413,2357550,2357687,2357825,2357958,2358097,2358236,2358376,2358517,2358663,2358809,2358957,2359105,2359259,2359417,2359558,2359708,2359855,2360001,2360149,2360313,2360448,2360591,2360744,2360886,2361031,2361179,2361329,2361480,2361635,2361798,2361962,2362123,2362287,2362451,2362614,2362775,2362936,2363095,2363253,2363410,2363567,2363721,2363875,2364029,2364184,2364340,2364487,2364636,2364786,2364939,2365091,2365245,2365397,2365550,2365705,2365860,2366018,2366178,2366341,2366506,2366671,2366839,2367005,2367169,2367331,2367493,2367654,2367815,2367976,2368134,2368294,2368454,2368614,2368780,2368940,2369098,2369258,2369420,2369586,2369747,2369910,2370072,2370234,2370398,2370560,2370722,2370886,2371049,2371209,2371371,2371538,2371706,2371873,2372041,2372209,2372374,2372538,2372698,2372856,2373014,2373170,2373328,2373488,2373649,2373811,2373971,2374129,2374289,2374447,2374599,2374747,2374905,2375056,2375203,2375359,2375500,2375648,2375798,2375948,2376250,2376417,2376573,2376724,2376882,2377043,2377202,2377363,2377521,2377678,2377833,2377990,2378140,2378299,2378452,2378608,2378762,2378914,2379069,2379224,2379379,2379535,2379694,2379849,2380003,2380155,2380304,2380453,2380603,2380742,2380887,2381034,2381180,2381317,2381601,2381737,2381875,2382017,2382161,2382308,2382459,2382611,2382767,2382924,2383085,2383246,2383409,2383567,2383726,2383884,2384042,2384198,2384352,2384508,2384664,2384819,2384975,2385132,2385289,2385446,2385601,2385757,2385915,2386070,2386226,2386381,2386535,2386690,2386843,2386995,2387148,2387299,2387452,2387599,2387749,2387893,2388039,2388183,2388327,2388486,2388621,2388759,2388904,2389056,2389200,2389342,2389486,2389632,2389778,2389930,2390069,2390214,2390361,2390506,2390652,2390798,2390944,2391088,2391234,2391379,2391526,2391670,2391815,2391958,2392100,2392240,2392378,2392515,2392651,2392786,2392922,2393057,2393197,2393335,2393476,2393621,2393774,2393934,2394089,2394239,2394391,2394540,2394688,2394835,2394981,2395129,2395278,2395427,2395577,2395728,2395881,2396033,2396181,2396330,2396481,2396632,2396784,2396936,2397087,2397234,2397382,2397537,2397695,2397853,2398012,2398167,2398324,2398482,2398509,2398639,2398790,2398952,2399107,2399260,2399416,2399569,2399722,2399870,2400015,2400168,2400313,2400467,2400613,2400766,2400917,2401065,2401213,2401363,2401514,2401666,2401807,2401956,2402105,2402256,2402404,2402555,2402704,2402851,2402996,2403139,2403283,2403427,2403569,2403709,2403851,2403995,2404141,2404286,2404432,2404579,2404730,2404876,2405024,2405174,2405322,2405469,2405619,2405759,2405906,2406050,2406195,2406339,2406484,2406630,2406771,2406852,2407053,2407201,2407425,2407606,2407742,2407874,2407929,2408280,2408409,2408548,2408680,2408815,2408955,2409082,2409220,2409348,2409482,2409617,2409753,2409899,2410034,2410180,2410328,2410487,2410649,2410809,2410966,2411119,2411272,2411321,2411421,2411576,2411731,2411888,2412037,2412185,2412333,2412478,2412621,2412902,2413045,2413187,2413333,2413476,2413622,2413771,2413924,2414086,2414249,2414408,2414575,2414740,2414902,2415061,2415219,2415377,2415550,2415721,2415885,2416049,2416212,2416375,2416534,2416690,2416847,2417007,2417167,2417326,2417489,2417650,2417813,2417972,2418137,2418300,2418465,2418630,2418796,2418959,2419123,2419286,2419445,2419604,2419762,2419918,2420063,2420212,2420364,2420516,2420669,2420828,2420981,2421144,2421300,2421467,2421637,2421808,2421973,2422141,2422303,2422383,2422635,2422860,2422975,2423158,2423310,2423479,2423654,2423819,2423988,2424163,2424337,2424546,2424656,2424691,2425187,2425348,2425501,2425667,2425814,2425964,2426111,2426254,2426397,2426541,2426684,2426830,2426974,2427117,2427265,2427411,2427562,2427710,2427858,2428010,2428162,2428316,2428474,2428635,2428802,2428891,2428972,2429140,2429305,2429463,2429623,2429775,2429928,2430075,2430224,2430373,2430519,2430667,2430816,2430961,2431108,2431253,2431397,2431540,2431686,2431838,2431993,2432146,2432310,2432483,2432659,2432833,2433015,2433203,2433388,2433579,2433754,2433931,2434109,2434285,2434470,2434660,2434854,2435047,2435245,2435635,2435834,2436023,2436213,2436285,2436409,2436592,2436788,2436828,2436957,2437138,2437322,2437482,2437650,2437814,2437967,2438121,2438269,2438416,2438564,2438710,2438804,2439276,2439419,2439558,2439699,2439844,2439992,2440142,2440287,2440438,2440590,2440747,2440902,2441062,2441222,2441382,2441544,2441708,2441870,2442025,2442174,2442329,2442487,2442649,2442809,2442974,2443135,2443297,2443456,2443614,2443772,2443930,2444074,2444223,2444376,2444524,2444592,2444802,2444949,2445107,2445247,2445398,2445552,2445711,2445865,2446022,2446185,2446339,2446495,2446648,2446804,2446959,2447112,2447276,2447429,2447589,2447752,2447920,2448090,2448257,2448420,2448588,2448753,2448920,2449078,2449238,2449402,2449565,2449723,2449887,2450052,2450216,2450376,2450543,2450706,2450870,2451036,2451202,2451363,2451526,2451686,2451839,2451998,2452154,2452314,2452476,2452634,2452791,2452951,2453111,2453273,2453433,2453591,2453752,2453911,2454068,2454222,2454378,2454539,2454680,2454840,2454995,2455149,2455302,2455452,2455606,2455760,2455913,2456072,2456231,2456386,2456544,2456704,2456865,2457025,2457186,2457348,2457500,2457654,2457808,2457966,2458134,2458307,2458484,2458669,2458860,2459042,2459234,2459412,2459587,2459758,2459929,2460098,2460262,2460422,2460580,2460742,2460881,2461029,2461178,2461333,2461488,2461647,2461809,2461963,2462121,2462287,2462453,2462621,2462789,2462949,2463111,2463269,2463428,2463517,2463587,2463736,2463888,2464043,2464189,2464340,2464489,2464637,2464786,2464939,2465094,2465245,2465396,2465543,2465695,2465842,2465988,2466131,2466275,2466419,2466567,2466713,2466861,2467010,2467163,2467327,2467469,2467621,2467771,2467921,2468065,2468208,2468354,2468499,2468642,2468786,2468809,2468930,2469074,2469221,2469369,2469522,2469674,2469825,2469975,2470129,2470288,2470453,2470622,2470779,2470948,2471123,2471292,2471460,2471517,2471622,2471664,2471795,2471959,2472122,2472284,2472450,2472595,2472769,2472904,2473056,2473203,2473360,2473519,2473675,2473836,2473998,2474167,2474339,2474468,2474518,2474625,2474678,2474841,2474978,2475162,2475314,2475467,2475768,2475919,2476068,2476217,2476371,2476526,2476685,2476851,2477013,2477179,2477357,2477519,2477688,2477853,2478020,2478185,2478346,2478504,2478658,2478815,2478972,2479131,2479292,2479450,2479608,2479768,2480090,2480251,2480411,2480576,2480742,2480909,2481074,2481234,2481398,2481563,2481727,2481891,2482057,2482226,2482393,2482559,2482723,2482888,2483048,2483209,2483370,2483531,2483690,2483843,2484002,2484162,2484320,2484488,2484651,2484817,2484981,2485145,2485311,2485478,2485641,2485799,2485958,2486118,2486273,2486429,2486589,2486754,2486921,2487089,2487256,2487425,2487582,2487739,2487896,2488054,2488215,2488382,2488549,2488716,2488881,2489042,2489203,2489357,2489508,2489662,2489811,2489967,2490119,2490273,2490431,2490592,2490756,2490916,2491078,2491246,2491413,2491580,2491745,2491915,2492083,2492250,2492415,2492577,2492741,2492899,2493058,2493215,2493366,2493517,2493665,2493812,2493964,2494122,2494279,2494434,2494588,2494741,2494891,2495041,2495190,2495337,2495486,2495631,2495777,2495920,2496065,2496207,2496352,2496502,2496650,2496830,2497173,2497184,2497332,2497498,2497661,2497818,2497903,2497980,2498141,2498296,2498449,2498604,2498758,2498910,2499063,2499217,2499367,2499520,2499669,2499822,2499983,2500131,2500285,2500438,2500616,2500791,2500954,2501134,2501294,2501460,2501633,2501807,2501975,2502162,2502315,2502478,2502652,2502819,2502990,2503163,2503337,2503508,2503681,2503852,2504021,2504187,2504343,2504502,2504658,2504813,2504959,2505275,2505428,2505584,2505739,2505898,2506057,2506213,2506377,2506541,2506707,2506876,2507043,2507207,2507371,2507517,2507685,2507832,2507906,2507977,2508059,2508126,2508222,2508274,2508427,2508562,2508726,2508879,2509035,2509193,2509352,2509388,2509514,2509678,2509838,2509996,2510150,2510304,2510339,2510453,2510621,2510758,2510908,2511061,2511215,2511371,2511527,2511685,2511848,2512005,2512163,2512321,2512547,2512788,2512946,2513103,2513263,2513422,2513504,2513577,2513733,2513889,2514045,2514128,2514196,2514352,2514510,2514669,2514833,2514995,2515157,2515322,2515483,2515651,2515806,2515964,2516122,2516280,2516433,2516589,2516744,2516899,2517056,2517217,2517381,2517547,2517718,2517887,2518059,2518232,2518401,2518571,2518745,2518918,2519089,2519256,2519423,2519590,2519755,2519922,2520084,2520246,2520406,2520564,2520722,2520883,2521043,2521200,2521359,2521520,2521681,2521841,2522002,2522160,2522319,2522478,2522639,2522799,2522959,2523118,2523279,2523440,2523602,2523766,2523929,2524091,2524254,2524416,2524577,2524739,2524899,2525055,2525214,2525373,2525531,2525689,2525849,2526006,2526161,2526317,2526473,2526629,2526783,2526938,2527094,2527249,2527406,2527562,2527719,2527873,2528028,2528183,2528339,2528494,2528648,2528801,2528953,2529106,2529258,2529410,2529561,2529713,2529866,2530022,2530175,2530329,2530483,2530638,2530790,2530943,2531096,2531249,2531401,2531552,2531704,2531857,2532011,2532169,2532326,2532481,2532639,2532795,2532952,2533110,2533262,2533415,2533566,2533719,2533866,2534012,2534157,2534302,2534449,2534595,2534743,2534896,2535047,2535198,2535347,2535497,2535651,2535806,2535960,2536111,2536262,2536413,2536558,2536703,2536846,2536992,2537139,2537289,2537441,2537593,2537747,2537897,2538060,2538215,2538373,2538534,2538689,2538853,2539021,2539189,2539368,2539552,2539727,2539910,2540094,2540276,2540443,2540617,2540787,2540957,2541119,2541284,2541446,2541607,2541765,2541920,2542083,2542242,2542399,2542563,2542726,2542893,2543215,2543372,2543424,2543519,2543690,2543848,2543880,2544003,2544158,2544311,2544464,2544617,2544770,2544919,2545067,2545217,2545365,2545510,2545658,2545807,2545951,2546101,2546245,2546387,2546534,2546680,2546823,2546966,2547109,2547256,2547402,2547550,2547695,2547844,2547995,2548145,2548295,2548445,2548594,2548746,2548896,2549046,2549198,2549350,2549502,2549655,2549808,2549953,2550114,2550265,2550414,2550565,2550717,2550860,2551009,2551160,2551310,2551462,2551613,2551769,2551925,2552081,2552239,2552391,2552548,2552698,2552854,2552995,2553144,2553296,2553445,2553596,2553750,2553903,2554061,2554218,2554375,2554529,2554686,2554842,2554992,2555146,2555456,2555612,2555766,2555926,2556086,2556242,2556407,2556569,2556731,2556884,2557039,2557197,2557356,2557515,2557676,2557835,2557995,2558153,2558315,2558621,2558652,2558794,2558953,2559110,2559266,2559419,2559574,2559729,2559884,2560038,2560144,2560192,2560339,2560490,2560643,2560791,2560941,2561093,2561250,2561411,2561572,2561734,2561898,2562063,2562227,2562391,2562558,2562723,2562886,2563047,2563209,2563369,2563526,