###正在加载动态心电图文件：1.txt###
###加载文件1.txt成功，数据时长：25.415133333333333小时，耗时：18.729801416397095s###
###正在重采样原始信号###
###重采样成功，采样后数据长度：16588800###，耗时：6.332458257675171s
###正在提取波群信息###
  0%|          | 0/16588800 [00:00<?, ?it/s]  2%|▏         | 288000/16588800 [00:13<12:53, 21079.47it/s]  3%|▎         | 432000/16588800 [00:27<18:06, 14866.93it/s]  3%|▎         | 432000/16588800 [00:40<18:06, 14866.93it/s]  3%|▎         | 576000/16588800 [00:41<20:48, 12820.72it/s]  4%|▍         | 720000/16588800 [00:55<22:35, 11704.20it/s]  5%|▌         | 864000/16588800 [01:08<22:59, 11399.37it/s]  5%|▌         | 864000/16588800 [01:20<22:59, 11399.37it/s]  6%|▌         | 1008000/16588800 [01:22<23:15, 11168.00it/s]  7%|▋         | 1152000/16588800 [01:35<23:18, 11035.47it/s]  8%|▊         | 1296000/16588800 [01:48<23:14, 10964.89it/s]  8%|▊         | 1296000/16588800 [02:00<23:14, 10964.89it/s]  9%|▊         | 1440000/16588800 [02:02<23:09, 10904.41it/s] 10%|▉         | 1584000/16588800 [02:16<23:21, 10709.04it/s] 10%|█         | 1728000/16588800 [02:29<23:12, 10670.52it/s] 10%|█         | 1728000/16588800 [02:40<23:12, 10670.52it/s] 11%|█▏        | 1872000/16588800 [02:43<22:56, 10695.25it/s] 12%|█▏        | 2016000/16588800 [02:57<22:54, 10604.95it/s] 12%|█▏        | 2016000/16588800 [03:10<22:54, 10604.95it/s] 13%|█▎        | 2160000/16588800 [03:10<22:35, 10642.99it/s] 14%|█▍        | 2304000/16588800 [03:24<22:24, 10627.82it/s] 15%|█▍        | 2448000/16588800 [03:38<22:24, 10515.69it/s] 15%|█▍        | 2448000/16588800 [03:50<22:24, 10515.69it/s] 16%|█▌        | 2592000/16588800 [03:51<22:09, 10526.49it/s] 16%|█▋        | 2736000/16588800 [04:05<22:06, 10446.42it/s] 17%|█▋        | 2880000/16588800 [04:19<21:40, 10540.03it/s] 17%|█▋        | 2880000/16588800 [04:30<21:40, 10540.03it/s] 18%|█▊        | 3024000/16588800 [04:32<21:19, 10602.29it/s] 19%|█▉        | 3168000/16588800 [04:45<20:57, 10675.44it/s] 20%|█▉        | 3312000/16588800 [04:59<20:40, 10704.97it/s] 20%|█▉        | 3312000/16588800 [05:10<20:40, 10704.97it/s] 21%|██        | 3456000/16588800 [05:12<20:24, 10726.68it/s] 22%|██▏       | 3600000/16588800 [05:25<20:08, 10750.08it/s] 23%|██▎       | 3744000/16588800 [05:39<19:56, 10735.49it/s] 23%|██▎       | 3744000/16588800 [05:50<19:56, 10735.49it/s] 23%|██▎       | 3888000/16588800 [05:52<19:41, 10745.30it/s] 24%|██▍       | 4032000/16588800 [06:08<20:41, 10115.12it/s] 24%|██▍       | 4032000/16588800 [06:20<20:41, 10115.12it/s] 25%|██▌       | 4176000/16588800 [06:22<20:03, 10312.77it/s] 26%|██▌       | 4320000/16588800 [06:35<19:31, 10470.38it/s] 27%|██▋       | 4464000/16588800 [06:48<19:07, 10567.15it/s] 27%|██▋       | 4464000/16588800 [07:00<19:07, 10567.15it/s] 28%|██▊       | 4608000/16588800 [07:02<18:46, 10633.95it/s] 29%|██▊       | 4752000/16588800 [07:16<18:40, 10567.30it/s] 30%|██▉       | 4896000/16588800 [07:29<18:20, 10621.73it/s] 30%|██▉       | 4896000/16588800 [07:40<18:20, 10621.73it/s] 30%|███       | 5040000/16588800 [07:42<18:00, 10684.66it/s] 31%|███▏      | 5184000/16588800 [07:55<17:41, 10742.22it/s] 32%|███▏      | 5328000/16588800 [08:09<17:29, 10728.61it/s] 32%|███▏      | 5328000/16588800 [08:20<17:29, 10728.61it/s] 33%|███▎      | 5472000/16588800 [08:22<17:15, 10738.48it/s] 34%|███▍      | 5616000/16588800 [08:36<16:59, 10760.83it/s] 35%|███▍      | 5760000/16588800 [08:49<16:43, 10794.77it/s] 35%|███▍      | 5760000/16588800 [09:00<16:43, 10794.77it/s] 36%|███▌      | 5904000/16588800 [09:02<16:29, 10792.81it/s] 36%|███▋      | 6048000/16588800 [09:16<16:21, 10743.04it/s] 37%|███▋      | 6192000/16588800 [09:29<16:06, 10756.89it/s] 37%|███▋      | 6192000/16588800 [09:40<16:06, 10756.89it/s] 38%|███▊      | 6336000/16588800 [09:42<15:51, 10778.29it/s] 39%|███▉      | 6480000/16588800 [09:56<15:38, 10776.07it/s] 40%|███▉      | 6624000/16588800 [10:10<15:36, 10640.48it/s] 40%|███▉      | 6624000/16588800 [10:20<15:36, 10640.48it/s] 41%|████      | 6768000/16588800 [10:23<15:19, 10685.41it/s] 42%|████▏     | 6912000/16588800 [10:37<15:09, 10636.59it/s] 42%|████▏     | 6912000/16588800 [10:50<15:09, 10636.59it/s] 43%|████▎     | 7056000/16588800 [10:50<14:50, 10704.90it/s] 43%|████▎     | 7200000/16588800 [11:03<14:32, 10763.00it/s] 44%|████▍     | 7344000/16588800 [11:16<14:16, 10790.83it/s] 45%|████▌     | 7488000/16588800 [11:30<14:01, 10820.52it/s] 45%|████▌     | 7488000/16588800 [11:40<14:01, 10820.52it/s] 46%|████▌     | 7632000/16588800 [11:43<13:47, 10819.30it/s] 47%|████▋     | 7776000/16588800 [11:57<13:40, 10745.89it/s] 48%|████▊     | 7920000/16588800 [12:10<13:25, 10764.24it/s] 48%|████▊     | 7920000/16588800 [12:20<13:25, 10764.24it/s] 49%|████▊     | 8064000/16588800 [12:23<13:09, 10800.28it/s] 49%|████▉     | 8208000/16588800 [12:36<12:54, 10821.49it/s] 50%|█████     | 8352000/16588800 [12:50<12:40, 10830.41it/s] 50%|█████     | 8352000/16588800 [13:00<12:40, 10830.41it/s] 51%|█████     | 8496000/16588800 [13:03<12:27, 10821.73it/s] 52%|█████▏    | 8640000/16588800 [13:16<12:14, 10819.03it/s] 53%|█████▎    | 8784000/16588800 [13:30<12:02, 10808.63it/s] 53%|█████▎    | 8784000/16588800 [13:40<12:02, 10808.63it/s] 54%|█████▍    | 8928000/16588800 [13:43<11:47, 10829.66it/s] 55%|█████▍    | 9072000/16588800 [13:56<11:32, 10849.38it/s] 56%|█████▌    | 9216000/16588800 [14:09<11:19, 10842.80it/s] 56%|█████▌    | 9216000/16588800 [14:20<11:19, 10842.80it/s] 56%|█████▋    | 9360000/16588800 [14:23<11:14, 10710.80it/s] 57%|█████▋    | 9504000/16588800 [14:38<11:22, 10380.33it/s] 57%|█████▋    | 9504000/16588800 [14:50<11:22, 10380.33it/s] 58%|█████▊    | 9648000/16588800 [14:51<10:59, 10521.97it/s] 59%|█████▉    | 9792000/16588800 [15:05<10:40, 10604.95it/s] 60%|█████▉    | 9936000/16588800 [15:18<10:23, 10663.89it/s] 60%|█████▉    | 9936000/16588800 [15:30<10:23, 10663.89it/s] 61%|██████    | 10080000/16588800 [15:31<10:08, 10705.22it/s] 61%|██████    | 10080000/16588800 [15:51<10:08, 10705.22it/s] 62%|██████▏   | 10224000/16588800 [15:51<11:17, 9398.25it/s]  62%|██████▎   | 10368000/16588800 [16:04<10:35, 9783.15it/s] 63%|██████▎   | 10512000/16588800 [16:18<10:02, 10087.95it/s] 63%|██████▎   | 10512000/16588800 [16:31<10:02, 10087.95it/s] 64%|██████▍   | 10656000/16588800 [16:31<09:36, 10296.23it/s] 65%|██████▌   | 10800000/16588800 [16:44<09:12, 10472.89it/s] 66%|██████▌   | 10944000/16588800 [16:57<08:53, 10578.33it/s] 67%|██████▋   | 11088000/16588800 [17:11<08:35, 10668.38it/s] 67%|██████▋   | 11088000/16588800 [17:21<08:35, 10668.38it/s] 68%|██████▊   | 11232000/16588800 [17:24<08:22, 10657.18it/s] 69%|██████▊   | 11376000/16588800 [17:37<08:06, 10717.41it/s] 69%|██████▉   | 11520000/16588800 [17:51<07:50, 10767.22it/s] 69%|██████▉   | 11520000/16588800 [18:01<07:50, 10767.22it/s] 70%|███████   | 11664000/16588800 [18:04<07:36, 10793.23it/s] 71%|███████   | 11808000/16588800 [18:18<07:25, 10737.14it/s] 71%|███████   | 11808000/16588800 [18:31<07:25, 10737.14it/s] 72%|███████▏  | 11952000/16588800 [18:32<07:18, 10575.01it/s] 73%|███████▎  | 12096000/16588800 [18:45<07:04, 10574.40it/s] 74%|███████▍  | 12240000/16588800 [18:58<06:47, 10662.77it/s] 74%|███████▍  | 12240000/16588800 [19:11<06:47, 10662.77it/s] 75%|███████▍  | 12384000/16588800 [19:12<06:31, 10727.09it/s] 76%|███████▌  | 12528000/16588800 [19:25<06:16, 10795.94it/s] 76%|███████▋  | 12672000/16588800 [19:38<06:01, 10821.67it/s] 76%|███████▋  | 12672000/16588800 [19:51<06:01, 10821.67it/s] 77%|███████▋  | 12816000/16588800 [19:51<05:48, 10833.56it/s] 78%|███████▊  | 12960000/16588800 [20:05<05:34, 10838.00it/s] 79%|███████▉  | 13104000/16588800 [20:18<05:21, 10831.60it/s] 80%|███████▉  | 13248000/16588800 [20:31<05:08, 10839.39it/s] 80%|███████▉  | 13248000/16588800 [20:41<05:08, 10839.39it/s] 81%|████████  | 13392000/16588800 [20:44<04:54, 10845.16it/s] 82%|████████▏ | 13536000/16588800 [20:58<04:41, 10843.04it/s] 82%|████████▏ | 13536000/16588800 [21:11<04:41, 10843.04it/s] 82%|████████▏ | 13680000/16588800 [21:12<04:32, 10689.06it/s] 83%|████████▎ | 13824000/16588800 [21:25<04:17, 10729.90it/s] 84%|████████▍ | 13968000/16588800 [21:38<04:03, 10768.62it/s] 84%|████████▍ | 13968000/16588800 [21:51<04:03, 10768.62it/s] 85%|████████▌ | 14112000/16588800 [21:52<03:49, 10786.34it/s] 86%|████████▌ | 14256000/16588800 [22:05<03:35, 10820.02it/s] 87%|████████▋ | 14400000/16588800 [22:18<03:22, 10820.05it/s] 88%|████████▊ | 14544000/16588800 [22:31<03:08, 10847.24it/s] 88%|████████▊ | 14544000/16588800 [22:42<03:08, 10847.24it/s] 89%|████████▊ | 14688000/16588800 [22:44<02:55, 10850.77it/s] 89%|████████▉ | 14832000/16588800 [22:58<02:41, 10850.29it/s] 90%|█████████ | 14976000/16588800 [23:11<02:28, 10856.21it/s] 90%|█████████ | 14976000/16588800 [23:22<02:28, 10856.21it/s] 91%|█████████ | 15120000/16588800 [23:24<02:15, 10850.71it/s] 92%|█████████▏| 15264000/16588800 [23:38<02:01, 10863.68it/s] 93%|█████████▎| 15408000/16588800 [23:51<01:48, 10860.66it/s] 93%|█████████▎| 15408000/16588800 [24:02<01:48, 10860.66it/s] 94%|█████████▍| 15552000/16588800 [24:04<01:35, 10860.33it/s] 95%|█████████▍| 15696000/16588800 [24:17<01:22, 10855.65it/s] 95%|█████████▌| 15840000/16588800 [24:31<01:08, 10876.20it/s] 95%|█████████▌| 15840000/16588800 [24:42<01:08, 10876.20it/s] 96%|█████████▋| 15984000/16588800 [24:44<00:55, 10864.42it/s] 97%|█████████▋| 16128000/16588800 [24:57<00:42, 10850.48it/s] 98%|█████████▊| 16272000/16588800 [25:10<00:29, 10858.20it/s] 98%|█████████▊| 16272000/16588800 [25:22<00:29, 10858.20it/s] 99%|█████████▉| 16416000/16588800 [25:24<00:15, 10831.28it/s]100%|█████████▉| 16560000/16588800 [25:37<00:02, 10842.70it/s]16704000it [25:50, 10847.31it/s]                              16704000it [26:02, 10847.31it/s]16848000it [26:04, 10847.59it/s]16992000it [26:17, 10840.60it/s]17136000it [26:30, 10847.47it/s]17136000it [26:43, 10847.47it/s]17280000it [26:43, 10847.16it/s]17424000it [26:57, 10819.88it/s]17568000it [27:10, 10827.59it/s]17568000it [27:23, 10827.59it/s]17712000it [27:24, 10750.66it/s]17856000it [27:37, 10769.14it/s]18000000it [27:50, 10811.72it/s]18000000it [28:03, 10811.72it/s]18144000it [28:03, 10848.78it/s]18288000it [28:17, 10843.74it/s]18288000it [28:30, 10692.29it/s]
###提取成功，提取出104404个心拍，耗时：1710.394530057907s###
1.txt-104404
###正在加载动态心电图文件：2.txt###
###加载文件2.txt成功，数据时长：23.983333333333334小时，耗时：18.483367204666138s###
###正在重采样原始信号###
###重采样成功，采样后数据长度：16588800###，耗时：4.1071937084198s
###正在提取波群信息###
  0%|          | 0/16588800 [00:00<?, ?it/s]  2%|▏         | 288000/16588800 [00:13<12:53, 21079.23it/s]  2%|▏         | 288000/16588800 [00:24<12:53, 21079.23it/s]  3%|▎         | 432000/16588800 [00:27<18:03, 14905.31it/s]  3%|▎         | 576000/16588800 [00:40<20:29, 13029.07it/s]  4%|▍         | 720000/16588800 [00:54<21:54, 12073.82it/s]  4%|▍         | 720000/16588800 [01:05<21:54, 12073.82it/s]  5%|▌         | 864000/16588800 [01:07<22:44, 11522.90it/s]  6%|▌         | 1008000/16588800 [01:21<23:07, 11229.51it/s]  7%|▋         | 1152000/16588800 [01:34<23:18, 11036.35it/s]  7%|▋         | 1152000/16588800 [01:45<23:18, 11036.35it/s]  8%|▊         | 1296000/16588800 [01:49<23:39, 10775.52it/s]  9%|▊         | 1440000/16588800 [02:02<23:44, 10637.03it/s]  9%|▊         | 1440000/16588800 [02:15<23:44, 10637.03it/s] 10%|▉         | 1584000/16588800 [02:16<23:26, 10665.01it/s] 10%|█         | 1728000/16588800 [02:29<23:06, 10718.76it/s] 10%|█         | 1728000/16588800 [02:45<23:06, 10718.76it/s] 11%|█▏        | 1872000/16588800 [02:49<26:08, 9380.51it/s]  12%|█▏        | 2016000/16588800 [03:02<24:51, 9771.77it/s] 12%|█▏        | 2016000/16588800 [03:15<24:51, 9771.77it/s] 13%|█▎        | 2160000/16588800 [03:16<23:55, 10053.51it/s] 14%|█▍        | 2304000/16588800 [03:29<23:16, 10227.37it/s] 15%|█▍        | 2448000/16588800 [03:43<22:43, 10374.13it/s] 15%|█▍        | 2448000/16588800 [03:55<22:43, 10374.13it/s] 16%|█▌        | 2592000/16588800 [03:57<22:34, 10335.39it/s] 16%|█▋        | 2736000/16588800 [04:10<21:58, 10508.15it/s] 17%|█▋        | 2880000/16588800 [04:23<21:32, 10610.50it/s] 17%|█▋        | 2880000/16588800 [04:35<21:32, 10610.50it/s] 18%|█▊        | 3024000/16588800 [04:37<21:26, 10542.24it/s] 19%|█▉        | 3168000/16588800 [04:50<21:05, 10603.36it/s] 20%|█▉        | 3312000/16588800 [05:05<21:11, 10439.47it/s] 20%|█▉        | 3312000/16588800 [05:15<21:11, 10439.47it/s] 21%|██        | 3456000/16588800 [05:18<20:45, 10545.59it/s] 22%|██▏       | 3600000/16588800 [05:31<20:22, 10621.41it/s] 23%|██▎       | 3744000/16588800 [05:45<20:04, 10667.25it/s] 23%|██▎       | 3744000/16588800 [05:55<20:04, 10667.25it/s] 23%|██▎       | 3888000/16588800 [05:58<19:52, 10647.01it/s] 24%|██▍       | 4032000/16588800 [06:12<19:37, 10663.83it/s] 25%|██▌       | 4176000/16588800 [06:25<19:21, 10683.61it/s] 25%|██▌       | 4176000/16588800 [06:35<19:21, 10683.61it/s] 26%|██▌       | 4320000/16588800 [06:39<19:11, 10656.25it/s] 27%|██▋       | 4464000/16588800 [06:52<18:56, 10671.92it/s] 27%|██▋       | 4464000/16588800 [07:05<18:56, 10671.92it/s] 28%|██▊       | 4608000/16588800 [07:05<18:40, 10696.55it/s] 29%|██▊       | 4752000/16588800 [07:19<18:23, 10727.22it/s] 30%|██▉       | 4896000/16588800 [07:32<18:09, 10734.16it/s] 30%|██▉       | 4896000/16588800 [07:45<18:09, 10734.16it/s] 30%|███       | 5040000/16588800 [07:46<17:53, 10757.65it/s] 31%|███▏      | 5184000/16588800 [07:59<17:46, 10688.77it/s] 32%|███▏      | 5328000/16588800 [08:13<17:42, 10594.93it/s] 32%|███▏      | 5328000/16588800 [08:26<17:42, 10594.93it/s] 33%|███▎      | 5472000/16588800 [08:27<17:35, 10535.71it/s] 34%|███▍      | 5616000/16588800 [08:40<17:15, 10597.84it/s] 35%|███▍      | 5760000/16588800 [08:54<16:56, 10650.75it/s] 35%|███▍      | 5760000/16588800 [09:06<16:56, 10650.75it/s] 36%|███▌      | 5904000/16588800 [09:14<19:04, 9332.87it/s]  36%|███▌      | 5904000/16588800 [09:26<19:04, 9332.87it/s] 36%|███▋      | 6048000/16588800 [09:27<18:08, 9684.66it/s] 37%|███▋      | 6192000/16588800 [09:41<17:25, 9942.09it/s] 38%|███▊      | 6336000/16588800 [09:55<17:01, 10041.61it/s] 38%|███▊      | 6336000/16588800 [10:06<17:01, 10041.61it/s] 39%|███▉      | 6480000/16588800 [10:08<16:26, 10244.40it/s] 40%|███▉      | 6624000/16588800 [10:21<15:57, 10403.52it/s] 41%|████      | 6768000/16588800 [10:35<15:34, 10504.66it/s] 41%|████      | 6768000/16588800 [10:46<15:34, 10504.66it/s] 42%|████▏     | 6912000/16588800 [10:48<15:13, 10592.95it/s] 43%|████▎     | 7056000/16588800 [11:02<14:56, 10634.20it/s] 43%|████▎     | 7200000/16588800 [11:15<14:44, 10613.60it/s] 43%|████▎     | 7200000/16588800 [11:26<14:44, 10613.60it/s] 44%|████▍     | 7344000/16588800 [11:29<14:27, 10654.59it/s] 45%|████▌     | 7488000/16588800 [11:42<14:10, 10694.83it/s] 46%|████▌     | 7632000/16588800 [11:55<13:55, 10715.63it/s] 46%|████▌     | 7632000/16588800 [12:06<13:55, 10715.63it/s] 47%|████▋     | 7776000/16588800 [12:09<13:44, 10691.51it/s] 48%|████▊     | 7920000/16588800 [12:22<13:28, 10716.84it/s] 49%|████▊     | 8064000/16588800 [12:36<13:18, 10676.89it/s] 49%|████▊     | 8064000/16588800 [12:46<13:18, 10676.89it/s] 49%|████▉     | 8208000/16588800 [12:50<13:18, 10500.54it/s] 50%|█████     | 8352000/16588800 [13:04<13:03, 10518.51it/s] 50%|█████     | 8352000/16588800 [13:16<13:03, 10518.51it/s] 51%|█████     | 8496000/16588800 [13:17<12:43, 10599.09it/s] 52%|█████▏    | 8640000/16588800 [13:30<12:24, 10678.93it/s] 53%|█████▎    | 8784000/16588800 [13:44<12:08, 10710.32it/s] 53%|█████▎    | 8784000/16588800 [13:56<12:08, 10710.32it/s] 54%|█████▍    | 8928000/16588800 [13:57<11:59, 10649.56it/s] 55%|█████▍    | 9072000/16588800 [14:11<11:52, 10554.94it/s] 56%|█████▌    | 9216000/16588800 [14:25<11:37, 10576.94it/s] 56%|█████▌    | 9216000/16588800 [14:36<11:37, 10576.94it/s] 56%|█████▋    | 9360000/16588800 [14:38<11:19, 10632.31it/s] 57%|█████▋    | 9504000/16588800 [14:52<11:03, 10677.79it/s] 58%|█████▊    | 9648000/16588800 [15:05<10:49, 10690.18it/s] 58%|█████▊    | 9648000/16588800 [15:16<10:49, 10690.18it/s] 59%|█████▉    | 9792000/16588800 [15:19<10:42, 10570.87it/s] 59%|█████▉    | 9792000/16588800 [15:36<10:42, 10570.87it/s] 60%|█████▉    | 9936000/16588800 [15:38<11:50, 9360.50it/s]  61%|██████    | 10080000/16588800 [15:52<11:07, 9751.40it/s] 62%|██████▏   | 10224000/16588800 [16:05<10:36, 10002.70it/s] 62%|██████▏   | 10224000/16588800 [16:17<10:36, 10002.70it/s] 62%|██████▎   | 10368000/16588800 [16:19<10:16, 10093.48it/s] 63%|██████▎   | 10512000/16588800 [16:33<09:49, 10309.46it/s] 64%|██████▍   | 10656000/16588800 [16:46<09:31, 10380.70it/s] 64%|██████▍   | 10656000/16588800 [16:57<09:31, 10380.70it/s] 65%|██████▌   | 10800000/16588800 [17:00<09:16, 10394.94it/s] 66%|██████▌   | 10944000/16588800 [17:13<08:56, 10511.78it/s] 67%|██████▋   | 11088000/16588800 [17:27<08:39, 10579.01it/s] 67%|██████▋   | 11088000/16588800 [17:37<08:39, 10579.01it/s] 68%|██████▊   | 11232000/16588800 [17:40<08:22, 10652.76it/s] 69%|██████▊   | 11376000/16588800 [17:53<08:06, 10713.02it/s] 69%|██████▊   | 11376000/16588800 [18:07<08:06, 10713.02it/s] 69%|██████▉   | 11520000/16588800 [18:07<07:59, 10567.89it/s] 70%|███████   | 11664000/16588800 [18:21<07:44, 10607.43it/s] 71%|███████   | 11808000/16588800 [18:34<07:26, 10697.15it/s] 71%|███████   | 11808000/16588800 [18:47<07:26, 10697.15it/s] 72%|███████▏  | 11952000/16588800 [18:47<07:13, 10708.54it/s] 73%|███████▎  | 12096000/16588800 [19:01<06:58, 10744.78it/s] 74%|███████▍  | 12240000/16588800 [19:15<06:49, 10619.74it/s] 74%|███████▍  | 12240000/16588800 [19:27<06:49, 10619.74it/s] 75%|███████▍  | 12384000/16588800 [19:28<06:34, 10649.69it/s] 76%|███████▌  | 12528000/16588800 [19:41<06:19, 10708.56it/s] 76%|███████▋  | 12672000/16588800 [19:55<06:05, 10719.25it/s] 76%|███████▋  | 12672000/16588800 [20:07<06:05, 10719.25it/s] 77%|███████▋  | 12816000/16588800 [20:08<05:50, 10765.57it/s] 78%|███████▊  | 12960000/16588800 [20:21<05:36, 10770.85it/s] 79%|███████▉  | 13104000/16588800 [20:35<05:22, 10794.74it/s] 79%|███████▉  | 13104000/16588800 [20:47<05:22, 10794.74it/s] 80%|███████▉  | 13248000/16588800 [20:48<05:10, 10759.65it/s] 81%|████████  | 13392000/16588800 [21:02<05:02, 10584.60it/s] 82%|████████▏ | 13536000/16588800 [21:16<04:46, 10647.03it/s] 82%|████████▏ | 13536000/16588800 [21:27<04:46, 10647.03it/s] 82%|████████▏ | 13680000/16588800 [21:29<04:32, 10668.27it/s] 83%|████████▎ | 13824000/16588800 [21:44<04:25, 10404.80it/s] 83%|████████▎ | 13824000/16588800 [21:58<04:25, 10404.80it/s] 84%|████████▍ | 13968000/16588800 [22:03<04:43, 9259.81it/s]  85%|████████▌ | 14112000/16588800 [22:16<04:15, 9691.07it/s] 85%|████████▌ | 14112000/16588800 [22:28<04:15, 9691.07it/s] 86%|████████▌ | 14256000/16588800 [22:30<03:52, 10016.17it/s] 87%|████████▋ | 14400000/16588800 [22:43<03:33, 10234.07it/s] 88%|████████▊ | 14544000/16588800 [22:57<03:18, 10300.45it/s] 88%|████████▊ | 14544000/16588800 [23:08<03:18, 10300.45it/s] 89%|████████▊ | 14688000/16588800 [23:10<03:02, 10391.33it/s] 89%|████████▉ | 14832000/16588800 [23:24<02:47, 10517.48it/s] 90%|█████████ | 14976000/16588800 [23:37<02:31, 10640.07it/s] 90%|█████████ | 14976000/16588800 [23:48<02:31, 10640.07it/s] 91%|█████████ | 15120000/16588800 [23:51<02:18, 10590.43it/s] 92%|█████████▏| 15264000/16588800 [24:05<02:06, 10499.67it/s] 93%|█████████▎| 15408000/16588800 [24:18<01:51, 10589.55it/s] 93%|█████████▎| 15408000/16588800 [24:28<01:51, 10589.55it/s] 94%|█████████▍| 15552000/16588800 [24:31<01:37, 10628.59it/s] 95%|█████████▍| 15696000/16588800 [24:45<01:23, 10690.39it/s] 95%|█████████▌| 15840000/16588800 [24:58<01:09, 10729.06it/s] 95%|█████████▌| 15840000/16588800 [25:08<01:09, 10729.06it/s] 96%|█████████▋| 15984000/16588800 [25:11<00:56, 10746.50it/s] 97%|█████████▋| 16128000/16588800 [25:25<00:42, 10761.50it/s] 98%|█████████▊| 16272000/16588800 [25:38<00:29, 10790.59it/s] 98%|█████████▊| 16272000/16588800 [25:48<00:29, 10790.59it/s] 99%|█████████▉| 16416000/16588800 [25:51<00:16, 10731.97it/s]100%|█████████▉| 16560000/16588800 [26:05<00:02, 10789.33it/s]16704000it [26:18, 10775.65it/s]                              16704000it [26:28, 10775.65it/s]16848000it [26:32, 10621.44it/s]16992000it [26:45, 10678.01it/s]16992000it [26:58, 10678.01it/s]17136000it [26:59, 10717.15it/s]17280000it [27:12, 10763.10it/s]17424000it [27:26, 10677.30it/s]17424000it [27:38, 10677.30it/s]17568000it [27:39, 10721.25it/s]17712000it [27:53, 10668.34it/s]17856000it [28:06, 10714.32it/s]17856000it [28:18, 10714.32it/s]18000000it [28:19, 10728.05it/s]18144000it [28:33, 10758.75it/s]18288000it [28:46, 10761.88it/s]18288000it [28:58, 10761.88it/s]18288000it [28:59, 10511.19it/s]
###提取成功，提取出90818个心拍，耗时：1739.860060930252s###
2.txt-90818
###正在加载动态心电图文件：3.txt###
###加载文件3.txt成功，数据时长：23.5992小时，耗时：17.281152963638306s###
###正在重采样原始信号###
###重采样成功，采样后数据长度：16588800###，耗时：5.749708652496338s
###正在提取波群信息###
  0%|          | 0/16588800 [00:00<?, ?it/s]  2%|▏         | 288000/16588800 [00:13<12:54, 21055.75it/s]  3%|▎         | 432000/16588800 [00:27<17:57, 14990.30it/s]  3%|▎         | 432000/16588800 [00:38<17:57, 14990.30it/s]  3%|▎         | 576000/16588800 [00:40<20:18, 13138.29it/s]  4%|▍         | 720000/16588800 [00:53<21:32, 12276.49it/s]  5%|▌         | 864000/16588800 [01:06<22:15, 11777.38it/s]  5%|▌         | 864000/16588800 [01:18<22:15, 11777.38it/s]  6%|▌         | 1008000/16588800 [01:19<22:35, 11490.72it/s]  7%|▋         | 1152000/16588800 [01:33<22:46, 11299.44it/s]  8%|▊         | 1296000/16588800 [01:46<22:52, 11142.92it/s]  8%|▊         | 1296000/16588800 [01:58<22:52, 11142.92it/s]  9%|▊         | 1440000/16588800 [01:59<22:48, 11072.60it/s] 10%|▉         | 1584000/16588800 [02:12<22:43, 11002.32it/s] 10%|█         | 1728000/16588800 [02:26<22:39, 10931.43it/s] 10%|█         | 1728000/16588800 [02:38<22:39, 10931.43it/s] 11%|█▏        | 1872000/16588800 [02:39<22:32, 10880.59it/s] 12%|█▏        | 2016000/16588800 [02:53<22:31, 10782.22it/s] 13%|█▎        | 2160000/16588800 [03:06<22:16, 10794.06it/s] 13%|█▎        | 2160000/16588800 [03:18<22:16, 10794.06it/s] 14%|█▍        | 2304000/16588800 [03:20<22:03, 10790.59it/s] 15%|█▍        | 2448000/16588800 [03:33<21:59, 10717.42it/s] 16%|█▌        | 2592000/16588800 [03:47<21:48, 10700.80it/s] 16%|█▌        | 2592000/16588800 [03:58<21:48, 10700.80it/s] 16%|█▋        | 2736000/16588800 [04:01<21:51, 10563.69it/s] 17%|█▋        | 2880000/16588800 [04:14<21:28, 10635.84it/s] 18%|█▊        | 3024000/16588800 [04:27<21:08, 10696.10it/s] 18%|█▊        | 3024000/16588800 [04:38<21:08, 10696.10it/s] 19%|█▉        | 3168000/16588800 [04:41<20:53, 10709.55it/s] 20%|█▉        | 3312000/16588800 [04:54<20:37, 10730.35it/s] 21%|██        | 3456000/16588800 [05:07<20:22, 10745.35it/s] 21%|██        | 3456000/16588800 [05:18<20:22, 10745.35it/s] 22%|██▏       | 3600000/16588800 [05:21<20:03, 10791.66it/s] 23%|██▎       | 3744000/16588800 [05:34<19:48, 10811.04it/s] 23%|██▎       | 3888000/16588800 [05:47<19:35, 10801.49it/s] 23%|██▎       | 3888000/16588800 [05:58<19:35, 10801.49it/s] 24%|██▍       | 4032000/16588800 [06:01<19:21, 10809.69it/s] 25%|██▌       | 4176000/16588800 [06:14<19:11, 10781.73it/s] 26%|██▌       | 4320000/16588800 [06:28<19:04, 10716.06it/s] 26%|██▌       | 4320000/16588800 [06:39<19:04, 10716.06it/s] 27%|██▋       | 4464000/16588800 [06:41<18:48, 10739.98it/s] 28%|██▊       | 4608000/16588800 [06:54<18:34, 10752.61it/s] 29%|██▊       | 4752000/16588800 [07:08<18:19, 10767.09it/s] 29%|██▊       | 4752000/16588800 [07:19<18:19, 10767.09it/s] 30%|██▉       | 4896000/16588800 [07:21<18:03, 10792.51it/s] 30%|███       | 5040000/16588800 [07:34<17:52, 10771.30it/s] 31%|███▏      | 5184000/16588800 [07:48<17:55, 10603.40it/s] 31%|███▏      | 5184000/16588800 [07:59<17:55, 10603.40it/s] 32%|███▏      | 5328000/16588800 [08:02<17:36, 10655.22it/s] 33%|███▎      | 5472000/16588800 [08:15<17:18, 10706.47it/s] 34%|███▍      | 5616000/16588800 [08:28<17:01, 10743.00it/s] 34%|███▍      | 5616000/16588800 [08:39<17:01, 10743.00it/s] 35%|███▍      | 5760000/16588800 [08:42<16:45, 10766.79it/s] 36%|███▌      | 5904000/16588800 [08:55<16:28, 10804.06it/s] 36%|███▋      | 6048000/16588800 [09:08<16:14, 10817.18it/s] 36%|███▋      | 6048000/16588800 [09:19<16:14, 10817.18it/s] 37%|███▋      | 6192000/16588800 [09:22<16:02, 10804.53it/s] 38%|███▊      | 6336000/16588800 [09:35<15:53, 10754.05it/s] 39%|███▉      | 6480000/16588800 [09:48<15:39, 10759.58it/s] 39%|███▉      | 6480000/16588800 [09:59<15:39, 10759.58it/s] 40%|███▉      | 6624000/16588800 [10:02<15:23, 10788.73it/s] 41%|████      | 6768000/16588800 [10:15<15:07, 10821.85it/s] 42%|████▏     | 6912000/16588800 [10:28<14:54, 10819.90it/s] 42%|████▏     | 6912000/16588800 [10:39<14:54, 10819.90it/s] 43%|████▎     | 7056000/16588800 [10:42<14:47, 10745.70it/s] 43%|████▎     | 7200000/16588800 [10:55<14:33, 10748.90it/s] 44%|████▍     | 7344000/16588800 [11:09<14:17, 10775.79it/s] 44%|████▍     | 7344000/16588800 [11:19<14:17, 10775.79it/s] 45%|████▌     | 7488000/16588800 [11:22<14:03, 10788.73it/s] 46%|████▌     | 7632000/16588800 [11:35<13:48, 10811.57it/s] 47%|████▋     | 7776000/16588800 [11:48<13:36, 10794.96it/s] 47%|████▋     | 7776000/16588800 [11:59<13:36, 10794.96it/s] 48%|████▊     | 7920000/16588800 [12:02<13:21, 10817.44it/s] 49%|████▊     | 8064000/16588800 [12:15<13:08, 10807.27it/s] 49%|████▉     | 8208000/16588800 [12:28<12:54, 10822.75it/s] 49%|████▉     | 8208000/16588800 [12:39<12:54, 10822.75it/s] 50%|█████     | 8352000/16588800 [12:42<12:41, 10810.02it/s] 51%|█████     | 8496000/16588800 [12:55<12:35, 10705.74it/s] 52%|█████▏    | 8640000/16588800 [13:09<12:20, 10733.39it/s] 52%|█████▏    | 8640000/16588800 [13:20<12:20, 10733.39it/s] 53%|█████▎    | 8784000/16588800 [13:22<12:04, 10771.34it/s] 54%|█████▍    | 8928000/16588800 [13:35<11:49, 10792.40it/s] 55%|█████▍    | 9072000/16588800 [13:49<11:39, 10742.26it/s] 55%|█████▍    | 9072000/16588800 [14:00<11:39, 10742.26it/s] 56%|█████▌    | 9216000/16588800 [14:02<11:24, 10771.76it/s] 56%|█████▋    | 9360000/16588800 [14:15<11:10, 10788.52it/s] 57%|█████▋    | 9504000/16588800 [14:29<10:56, 10787.66it/s] 57%|█████▋    | 9504000/16588800 [14:40<10:56, 10787.66it/s] 58%|█████▊    | 9648000/16588800 [14:42<10:42, 10802.64it/s] 59%|█████▉    | 9792000/16588800 [14:55<10:28, 10816.39it/s] 60%|█████▉    | 9936000/16588800 [15:09<10:14, 10827.59it/s] 60%|█████▉    | 9936000/16588800 [15:20<10:14, 10827.59it/s] 61%|██████    | 10080000/16588800 [15:22<10:01, 10827.56it/s] 62%|██████▏   | 10224000/16588800 [15:35<09:47, 10827.40it/s] 62%|██████▎   | 10368000/16588800 [15:49<09:34, 10834.06it/s] 62%|██████▎   | 10368000/16588800 [16:00<09:34, 10834.06it/s] 63%|██████▎   | 10512000/16588800 [16:02<09:24, 10763.02it/s] 64%|██████▍   | 10656000/16588800 [16:16<09:12, 10734.71it/s] 65%|██████▌   | 10800000/16588800 [16:29<08:57, 10766.59it/s] 65%|██████▌   | 10800000/16588800 [16:40<08:57, 10766.59it/s] 66%|██████▌   | 10944000/16588800 [16:42<08:43, 10790.38it/s] 67%|██████▋   | 11088000/16588800 [16:55<08:28, 10812.91it/s] 68%|██████▊   | 11232000/16588800 [17:09<08:14, 10822.13it/s] 68%|██████▊   | 11232000/16588800 [17:20<08:14, 10822.13it/s] 69%|██████▊   | 11376000/16588800 [17:22<08:03, 10788.59it/s] 69%|██████▉   | 11520000/16588800 [17:35<07:48, 10826.71it/s] 70%|███████   | 11664000/16588800 [17:49<07:34, 10824.04it/s] 70%|███████   | 11664000/16588800 [18:00<07:34, 10824.04it/s] 71%|███████   | 11808000/16588800 [18:02<07:21, 10824.52it/s] 72%|███████▏  | 11952000/16588800 [18:15<07:08, 10829.69it/s] 73%|███████▎  | 12096000/16588800 [18:28<06:54, 10852.09it/s] 73%|███████▎  | 12096000/16588800 [18:40<06:54, 10852.09it/s] 74%|███████▍  | 12240000/16588800 [18:42<06:42, 10814.82it/s] 75%|███████▍  | 12384000/16588800 [18:55<06:29, 10805.72it/s] 76%|███████▌  | 12528000/16588800 [19:09<06:16, 10793.23it/s] 76%|███████▌  | 12528000/16588800 [19:21<06:16, 10793.23it/s] 76%|███████▋  | 12672000/16588800 [19:22<06:03, 10772.25it/s] 77%|███████▋  | 12816000/16588800 [19:36<05:54, 10648.31it/s] 78%|███████▊  | 12960000/16588800 [19:49<05:40, 10654.37it/s] 78%|███████▊  | 12960000/16588800 [20:01<05:40, 10654.37it/s] 79%|███████▉  | 13104000/16588800 [20:03<05:26, 10689.38it/s] 80%|███████▉  | 13248000/16588800 [20:16<05:11, 10710.18it/s] 81%|████████  | 13392000/16588800 [20:30<04:58, 10725.91it/s] 81%|████████  | 13392000/16588800 [20:41<04:58, 10725.91it/s] 82%|████████▏ | 13536000/16588800 [20:43<04:44, 10748.23it/s] 82%|████████▏ | 13680000/16588800 [20:56<04:32, 10691.48it/s] 83%|████████▎ | 13824000/16588800 [21:10<04:18, 10689.66it/s] 83%|████████▎ | 13824000/16588800 [21:21<04:18, 10689.66it/s] 84%|████████▍ | 13968000/16588800 [21:24<04:06, 10637.82it/s] 85%|████████▌ | 14112000/16588800 [21:37<03:53, 10591.60it/s] 86%|████████▌ | 14256000/16588800 [21:51<03:40, 10572.02it/s] 86%|████████▌ | 14256000/16588800 [22:01<03:40, 10572.02it/s] 87%|████████▋ | 14400000/16588800 [22:04<03:26, 10618.80it/s] 88%|████████▊ | 14544000/16588800 [22:18<03:12, 10643.04it/s] 88%|████████▊ | 14544000/16588800 [22:31<03:12, 10643.04it/s] 89%|████████▊ | 14688000/16588800 [22:31<02:58, 10654.69it/s] 89%|████████▉ | 14832000/16588800 [22:45<02:45, 10644.79it/s] 90%|█████████ | 14976000/16588800 [22:58<02:31, 10655.39it/s] 90%|█████████ | 14976000/16588800 [23:11<02:31, 10655.39it/s] 91%|█████████ | 15120000/16588800 [23:12<02:17, 10649.15it/s] 92%|█████████▏| 15264000/16588800 [23:26<02:04, 10626.45it/s] 93%|█████████▎| 15408000/16588800 [23:39<01:51, 10598.13it/s] 93%|█████████▎| 15408000/16588800 [23:51<01:51, 10598.13it/s] 94%|█████████▍| 15552000/16588800 [23:53<01:38, 10543.61it/s] 95%|█████████▍| 15696000/16588800 [24:07<01:24, 10581.99it/s] 95%|█████████▌| 15840000/16588800 [24:20<01:10, 10633.95it/s] 95%|█████████▌| 15840000/16588800 [24:31<01:10, 10633.95it/s] 96%|█████████▋| 15984000/16588800 [24:33<00:56, 10677.27it/s] 97%|█████████▋| 16128000/16588800 [24:47<00:43, 10557.62it/s] 97%|█████████▋| 16128000/16588800 [25:02<00:43, 10557.62it/s] 98%|█████████▊| 16272000/16588800 [25:02<00:30, 10424.21it/s] 99%|█████████▉| 16416000/16588800 [25:15<00:16, 10419.17it/s]100%|█████████▉| 16560000/16588800 [25:29<00:02, 10481.30it/s]100%|█████████▉| 16560000/16588800 [25:42<00:02, 10481.30it/s]16704000it [25:43, 10480.14it/s]                              16848000it [25:56, 10464.51it/s]16992000it [26:10, 10474.65it/s]16992000it [26:22, 10474.65it/s]17136000it [26:24, 10442.12it/s]17280000it [26:38, 10527.58it/s]17424000it [26:52, 10445.87it/s]17424000it [27:02, 10445.87it/s]17568000it [27:05, 10531.48it/s]17712000it [27:19, 10545.44it/s]17712000it [27:32, 10545.44it/s]17856000it [27:32, 10587.32it/s]18000000it [27:46, 10622.92it/s]18144000it [27:59, 10662.64it/s]18144000it [28:12, 10662.64it/s]18288000it [28:13, 10630.39it/s]18288000it [28:26, 10715.84it/s]
###提取成功，提取出79260个心拍，耗时：1706.6331219673157s###
3.txt-79260
###正在加载动态心电图文件：4.txt###
###加载文件4.txt成功，数据时长：24.984066666666667小时，耗时：16.64189648628235s###
###正在重采样原始信号###
###重采样成功，采样后数据长度：16588800###，耗时：5.169265270233154s
###正在提取波群信息###
  0%|          | 0/16588800 [00:00<?, ?it/s]  2%|▏         | 288000/16588800 [00:13<12:53, 21077.33it/s]  3%|▎         | 432000/16588800 [00:27<17:53, 15054.32it/s]  3%|▎         | 432000/16588800 [00:39<17:53, 15054.32it/s]  3%|▎         | 576000/16588800 [00:40<20:17, 13147.38it/s]  4%|▍         | 720000/16588800 [00:53<21:38, 12216.18it/s]  5%|▌         | 864000/16588800 [01:06<22:21, 11724.51it/s]  5%|▌         | 864000/16588800 [01:19<22:21, 11724.51it/s]  6%|▌         | 1008000/16588800 [01:20<22:43, 11430.29it/s]  7%|▋         | 1152000/16588800 [01:34<23:21, 11012.01it/s]  8%|▊         | 1296000/16588800 [01:48<23:40, 10762.74it/s]  8%|▊         | 1296000/16588800 [01:59<23:40, 10762.74it/s]  9%|▊         | 1440000/16588800 [02:01<23:27, 10766.20it/s] 10%|▉         | 1584000/16588800 [02:14<23:08, 10804.59it/s] 10%|█         | 1728000/16588800 [02:28<22:54, 10811.53it/s] 10%|█         | 1728000/16588800 [02:39<22:54, 10811.53it/s] 11%|█▏        | 1872000/16588800 [02:41<22:46, 10768.24it/s] 12%|█▏        | 2016000/16588800 [02:55<22:33, 10763.84it/s] 13%|█▎        | 2160000/16588800 [03:08<22:19, 10771.57it/s] 13%|█▎        | 2160000/16588800 [03:19<22:19, 10771.57it/s] 14%|█▍        | 2304000/16588800 [03:22<22:20, 10653.48it/s] 15%|█▍        | 2448000/16588800 [03:35<22:09, 10632.92it/s] 16%|█▌        | 2592000/16588800 [03:49<21:55, 10638.97it/s] 16%|█▌        | 2592000/16588800 [03:59<21:55, 10638.97it/s] 16%|█▋        | 2736000/16588800 [04:02<21:36, 10682.29it/s] 17%|█▋        | 2880000/16588800 [04:16<21:37, 10568.07it/s] 17%|█▋        | 2880000/16588800 [04:30<21:37, 10568.07it/s] 18%|█▊        | 3024000/16588800 [04:30<21:14, 10643.86it/s] 19%|█▉        | 3168000/16588800 [04:43<21:00, 10647.97it/s] 20%|█▉        | 3312000/16588800 [04:56<20:42, 10687.09it/s] 20%|█▉        | 3312000/16588800 [05:10<20:42, 10687.09it/s] 21%|██        | 3456000/16588800 [05:10<20:24, 10725.62it/s] 22%|██▏       | 3600000/16588800 [05:23<20:07, 10754.67it/s] 23%|██▎       | 3744000/16588800 [05:37<19:55, 10744.55it/s] 23%|██▎       | 3744000/16588800 [05:50<19:55, 10744.55it/s] 23%|██▎       | 3888000/16588800 [05:50<19:43, 10732.26it/s] 24%|██▍       | 4032000/16588800 [06:03<19:28, 10749.40it/s] 25%|██▌       | 4176000/16588800 [06:17<19:14, 10752.54it/s] 25%|██▌       | 4176000/16588800 [06:30<19:14, 10752.54it/s] 26%|██▌       | 4320000/16588800 [06:30<19:01, 10747.38it/s] 27%|██▋       | 4464000/16588800 [06:44<18:52, 10703.04it/s] 28%|██▊       | 4608000/16588800 [06:57<18:40, 10693.50it/s] 28%|██▊       | 4608000/16588800 [07:10<18:40, 10693.50it/s] 29%|██▊       | 4752000/16588800 [07:11<18:26, 10694.76it/s] 30%|██▉       | 4896000/16588800 [07:24<18:09, 10731.15it/s] 30%|███       | 5040000/16588800 [07:37<17:51, 10779.91it/s] 30%|███       | 5040000/16588800 [07:50<17:51, 10779.91it/s] 31%|███▏      | 5184000/16588800 [07:51<17:37, 10781.15it/s] 32%|███▏      | 5328000/16588800 [08:04<17:24, 10781.09it/s] 33%|███▎      | 5472000/16588800 [08:17<17:11, 10772.55it/s] 33%|███▎      | 5472000/16588800 [08:30<17:11, 10772.55it/s] 34%|███▍      | 5616000/16588800 [08:31<16:56, 10791.80it/s] 35%|███▍      | 5760000/16588800 [08:44<16:43, 10794.00it/s] 36%|███▌      | 5904000/16588800 [08:57<16:27, 10816.08it/s] 36%|███▌      | 5904000/16588800 [09:10<16:27, 10816.08it/s] 36%|███▋      | 6048000/16588800 [09:11<16:15, 10800.43it/s] 37%|███▋      | 6192000/16588800 [09:24<16:04, 10779.22it/s] 38%|███▊      | 6336000/16588800 [09:37<15:48, 10808.65it/s] 38%|███▊      | 6336000/16588800 [09:50<15:48, 10808.65it/s] 39%|███▉      | 6480000/16588800 [09:51<15:37, 10778.08it/s] 40%|███▉      | 6624000/16588800 [10:04<15:32, 10690.79it/s] 41%|████      | 6768000/16588800 [10:19<15:32, 10534.47it/s] 41%|████      | 6768000/16588800 [10:30<15:32, 10534.47it/s] 42%|████▏     | 6912000/16588800 [10:32<15:15, 10572.04it/s] 43%|████▎     | 7056000/16588800 [10:46<15:05, 10524.68it/s] 43%|████▎     | 7056000/16588800 [11:00<15:05, 10524.68it/s] 43%|████▎     | 7200000/16588800 [11:01<15:13, 10276.92it/s] 44%|████▍     | 7344000/16588800 [11:15<14:58, 10285.60it/s] 45%|████▌     | 7488000/16588800 [11:28<14:32, 10434.21it/s] 45%|████▌     | 7488000/16588800 [11:40<14:32, 10434.21it/s] 46%|████▌     | 7632000/16588800 [11:41<14:11, 10524.18it/s] 47%|████▋     | 7776000/16588800 [11:55<13:51, 10602.41it/s] 48%|████▊     | 7920000/16588800 [12:08<13:32, 10666.25it/s] 48%|████▊     | 7920000/16588800 [12:20<13:32, 10666.25it/s] 49%|████▊     | 8064000/16588800 [12:21<13:16, 10707.79it/s] 49%|████▉     | 8208000/16588800 [12:35<13:02, 10707.13it/s] 50%|█████     | 8352000/16588800 [12:48<12:47, 10726.04it/s] 50%|█████     | 8352000/16588800 [13:00<12:47, 10726.04it/s] 51%|█████     | 8496000/16588800 [13:01<12:32, 10752.19it/s] 52%|█████▏    | 8640000/16588800 [13:15<12:25, 10666.26it/s] 53%|█████▎    | 8784000/16588800 [13:30<12:33, 10358.32it/s] 53%|█████▎    | 8784000/16588800 [13:41<12:33, 10358.32it/s] 54%|█████▍    | 8928000/16588800 [13:45<12:29, 10225.02it/s] 55%|█████▍    | 9072000/16588800 [13:58<12:02, 10402.51it/s] 55%|█████▍    | 9072000/16588800 [14:11<12:02, 10402.51it/s] 56%|█████▌    | 9216000/16588800 [14:11<11:40, 10529.43it/s] 56%|█████▋    | 9360000/16588800 [14:24<11:20, 10629.07it/s] 57%|█████▋    | 9504000/16588800 [14:38<11:02, 10686.42it/s] 58%|█████▊    | 9648000/16588800 [14:51<10:46, 10743.30it/s] 58%|█████▊    | 9648000/16588800 [15:01<10:46, 10743.30it/s] 59%|█████▉    | 9792000/16588800 [15:04<10:29, 10797.32it/s] 60%|█████▉    | 9936000/16588800 [15:17<10:14, 10823.83it/s] 61%|██████    | 10080000/16588800 [15:31<09:59, 10850.61it/s] 61%|██████    | 10080000/16588800 [15:41<09:59, 10850.61it/s] 62%|██████▏   | 10224000/16588800 [15:44<09:45, 10873.67it/s] 62%|██████▎   | 10368000/16588800 [15:57<09:31, 10880.77it/s] 63%|██████▎   | 10512000/16588800 [16:10<09:18, 10873.06it/s] 63%|██████▎   | 10512000/16588800 [16:21<09:18, 10873.06it/s] 64%|██████▍   | 10656000/16588800 [16:24<09:07, 10837.76it/s] 65%|██████▌   | 10800000/16588800 [16:37<08:54, 10824.61it/s] 66%|██████▌   | 10944000/16588800 [16:50<08:40, 10840.34it/s] 66%|██████▌   | 10944000/16588800 [17:02<08:40, 10840.34it/s] 67%|██████▋   | 11088000/16588800 [17:03<08:26, 10856.66it/s] 68%|██████▊   | 11232000/16588800 [17:17<08:20, 10694.01it/s] 69%|██████▊   | 11376000/16588800 [17:31<08:06, 10704.63it/s] 69%|██████▊   | 11376000/16588800 [17:42<08:06, 10704.63it/s] 69%|██████▉   | 11520000/16588800 [17:44<07:52, 10721.24it/s] 70%|███████   | 11664000/16588800 [17:57<07:38, 10749.55it/s] 71%|███████   | 11808000/16588800 [18:11<07:23, 10782.89it/s] 71%|███████   | 11808000/16588800 [18:22<07:23, 10782.89it/s] 72%|███████▏  | 11952000/16588800 [18:24<07:09, 10798.64it/s] 73%|███████▎  | 12096000/16588800 [18:37<06:55, 10822.88it/s] 74%|███████▍  | 12240000/16588800 [18:51<06:41, 10819.91it/s] 74%|███████▍  | 12240000/16588800 [19:02<06:41, 10819.91it/s] 75%|███████▍  | 12384000/16588800 [19:04<06:27, 10837.88it/s] 76%|███████▌  | 12528000/16588800 [19:17<06:16, 10784.99it/s] 76%|███████▋  | 12672000/16588800 [19:31<06:02, 10790.87it/s] 76%|███████▋  | 12672000/16588800 [19:42<06:02, 10790.87it/s] 77%|███████▋  | 12816000/16588800 [19:44<05:49, 10785.07it/s] 78%|███████▊  | 12960000/16588800 [19:57<05:36, 10782.68it/s] 79%|███████▉  | 13104000/16588800 [20:11<05:22, 10798.69it/s] 79%|███████▉  | 13104000/16588800 [20:22<05:22, 10798.69it/s] 80%|███████▉  | 13248000/16588800 [20:24<05:08, 10815.53it/s] 81%|████████  | 13392000/16588800 [20:37<04:56, 10769.24it/s] 82%|████████▏ | 13536000/16588800 [20:51<04:43, 10778.98it/s] 82%|████████▏ | 13536000/16588800 [21:02<04:43, 10778.98it/s] 82%|████████▏ | 13680000/16588800 [21:04<04:31, 10730.54it/s] 83%|████████▎ | 13824000/16588800 [21:18<04:17, 10748.50it/s] 84%|████████▍ | 13968000/16588800 [21:31<04:03, 10760.73it/s] 84%|████████▍ | 13968000/16588800 [21:42<04:03, 10760.73it/s] 85%|████████▌ | 14112000/16588800 [21:44<03:49, 10777.28it/s] 86%|████████▌ | 14256000/16588800 [21:58<03:36, 10772.49it/s] 87%|████████▋ | 14400000/16588800 [22:11<03:22, 10790.98it/s] 87%|████████▋ | 14400000/16588800 [22:23<03:22, 10790.98it/s] 88%|████████▊ | 14544000/16588800 [22:24<03:09, 10794.61it/s] 89%|████████▊ | 14688000/16588800 [22:38<02:56, 10742.50it/s] 89%|████████▉ | 14832000/16588800 [22:52<02:45, 10637.98it/s] 89%|████████▉ | 14832000/16588800 [23:03<02:45, 10637.98it/s] 90%|█████████ | 14976000/16588800 [23:05<02:30, 10689.15it/s] 91%|█████████ | 15120000/16588800 [23:18<02:16, 10735.27it/s] 92%|█████████▏| 15264000/16588800 [23:32<02:02, 10775.41it/s] 92%|█████████▏| 15264000/16588800 [23:43<02:02, 10775.41it/s] 93%|█████████▎| 15408000/16588800 [23:45<01:49, 10771.96it/s] 94%|█████████▍| 15552000/16588800 [23:59<01:38, 10503.43it/s] 94%|█████████▍| 15552000/16588800 [24:13<01:38, 10503.43it/s] 95%|█████████▍| 15696000/16588800 [24:14<01:27, 10237.71it/s] 95%|█████████▌| 15840000/16588800 [24:29<01:14, 10052.40it/s] 95%|█████████▌| 15840000/16588800 [24:43<01:14, 10052.40it/s] 96%|█████████▋| 15984000/16588800 [24:43<00:59, 10110.83it/s] 97%|█████████▋| 16128000/16588800 [25:01<00:48, 9441.20it/s]  97%|█████████▋| 16128000/16588800 [25:13<00:48, 9441.20it/s] 98%|█████████▊| 16272000/16588800 [25:14<00:32, 9823.25it/s] 99%|█████████▉| 16416000/16588800 [25:28<00:17, 10096.38it/s]100%|█████████▉| 16560000/16588800 [25:41<00:02, 10303.73it/s]100%|█████████▉| 16560000/16588800 [25:53<00:02, 10303.73it/s]16704000it [25:55, 10369.31it/s]                              16848000it [26:08, 10349.40it/s]16992000it [26:22, 10502.04it/s]16992000it [26:33, 10502.04it/s]17136000it [26:35, 10615.60it/s]17280000it [26:48, 10716.81it/s]17424000it [27:03, 10415.00it/s]17424000it [27:14, 10415.00it/s]17568000it [27:17, 10324.41it/s]17712000it [27:31, 10348.85it/s]17712000it [27:44, 10348.85it/s]17856000it [27:44, 10479.04it/s]18000000it [27:58, 10580.10it/s]18144000it [28:11, 10669.32it/s]18144000it [28:24, 10669.32it/s]18288000it [28:25, 10600.96it/s]18288000it [28:38, 10642.81it/s]
###提取成功，提取出103487个心拍，耗时：1718.3444113731384s###
4.txt-103487
###正在加载动态心电图文件：d0714.txt###
###加载文件d0714.txt成功，数据时长：20.416866666666667小时，耗时：14.693749904632568s###
###正在重采样原始信号###
###重采样成功，采样后数据长度：16588800###，耗时：5.695748567581177s
###正在提取波群信息###
  0%|          | 0/16588800 [00:00<?, ?it/s]  2%|▏         | 288000/16588800 [00:13<12:30, 21734.28it/s]  3%|▎         | 432000/16588800 [00:26<17:38, 15267.00it/s]  3%|▎         | 432000/16588800 [00:39<17:38, 15267.00it/s]  3%|▎         | 576000/16588800 [00:40<20:24, 13076.32it/s]  4%|▍         | 720000/16588800 [00:53<21:43, 12171.74it/s]  5%|▌         | 864000/16588800 [01:06<22:19, 11739.44it/s]  5%|▌         | 864000/16588800 [01:19<22:19, 11739.44it/s]  6%|▌         | 1008000/16588800 [01:19<22:35, 11496.52it/s]  7%|▋         | 1152000/16588800 [01:32<22:43, 11322.41it/s]  8%|▊         | 1296000/16588800 [01:46<22:45, 11201.69it/s]  8%|▊         | 1296000/16588800 [01:59<22:45, 11201.69it/s]  9%|▊         | 1440000/16588800 [01:59<22:49, 11064.25it/s]  9%|▊         | 1440000/16588800 [02:09<22:49, 11064.25it/s] 10%|▉         | 1584000/16588800 [02:12<22:39, 11036.14it/s] 10%|█         | 1728000/16588800 [02:26<23:03, 10741.44it/s] 10%|█         | 1728000/16588800 [02:39<23:03, 10741.44it/s] 11%|█▏        | 1872000/16588800 [02:40<23:02, 10644.55it/s] 12%|█▏        | 2016000/16588800 [02:54<22:55, 10595.09it/s] 13%|█▎        | 2160000/16588800 [03:08<22:47, 10553.25it/s] 13%|█▎        | 2160000/16588800 [03:19<22:47, 10553.25it/s] 14%|█▍        | 2304000/16588800 [03:21<22:22, 10643.61it/s] 15%|█▍        | 2448000/16588800 [03:34<21:57, 10733.92it/s] 16%|█▌        | 2592000/16588800 [03:47<21:36, 10797.11it/s] 16%|█▌        | 2592000/16588800 [04:00<21:36, 10797.11it/s] 16%|█▋        | 2736000/16588800 [04:00<21:15, 10858.90it/s] 17%|█▋        | 2880000/16588800 [04:14<21:00, 10875.82it/s] 18%|█▊        | 3024000/16588800 [04:27<20:45, 10894.18it/s] 18%|█▊        | 3024000/16588800 [04:40<20:45, 10894.18it/s] 19%|█▉        | 3168000/16588800 [04:40<20:30, 10909.89it/s] 20%|█▉        | 3312000/16588800 [04:53<20:17, 10901.84it/s] 21%|██        | 3456000/16588800 [05:07<20:26, 10705.15it/s] 21%|██        | 3456000/16588800 [05:20<20:26, 10705.15it/s] 22%|██▏       | 3600000/16588800 [05:21<20:11, 10719.78it/s] 23%|██▎       | 3744000/16588800 [05:34<19:49, 10799.87it/s] 23%|██▎       | 3888000/16588800 [05:47<19:32, 10830.49it/s] 23%|██▎       | 3888000/16588800 [06:00<19:32, 10830.49it/s] 24%|██▍       | 4032000/16588800 [06:01<19:40, 10632.81it/s] 25%|██▌       | 4176000/16588800 [06:14<19:18, 10715.19it/s] 26%|██▌       | 4320000/16588800 [06:27<18:59, 10766.31it/s] 26%|██▌       | 4320000/16588800 [06:40<18:59, 10766.31it/s] 27%|██▋       | 4464000/16588800 [06:40<18:39, 10829.94it/s] 28%|██▊       | 4608000/16588800 [06:54<18:22, 10867.18it/s] 29%|██▊       | 4752000/16588800 [07:07<18:06, 10892.73it/s] 30%|██▉       | 4896000/16588800 [07:20<17:51, 10909.17it/s] 30%|██▉       | 4896000/16588800 [07:30<17:51, 10909.17it/s] 30%|███       | 5040000/16588800 [07:33<17:37, 10924.21it/s] 31%|███▏      | 5184000/16588800 [07:46<17:27, 10887.65it/s] 32%|███▏      | 5328000/16588800 [08:00<17:14, 10880.37it/s] 32%|███▏      | 5328000/16588800 [08:10<17:14, 10880.37it/s] 33%|███▎      | 5472000/16588800 [08:13<17:01, 10880.22it/s] 34%|███▍      | 5616000/16588800 [08:27<16:57, 10783.67it/s] 35%|███▍      | 5760000/16588800 [08:40<16:40, 10827.00it/s] 35%|███▍      | 5760000/16588800 [08:50<16:40, 10827.00it/s] 36%|███▌      | 5904000/16588800 [08:53<16:23, 10859.96it/s] 36%|███▋      | 6048000/16588800 [09:06<16:10, 10857.41it/s] 37%|███▋      | 6192000/16588800 [09:19<15:53, 10898.33it/s] 37%|███▋      | 6192000/16588800 [09:30<15:53, 10898.33it/s] 38%|███▊      | 6336000/16588800 [09:32<15:42, 10882.43it/s] 39%|███▉      | 6480000/16588800 [09:46<15:26, 10910.42it/s] 40%|███▉      | 6624000/16588800 [09:59<15:13, 10906.38it/s] 40%|███▉      | 6624000/16588800 [10:10<15:13, 10906.38it/s] 41%|████      | 6768000/16588800 [10:12<15:00, 10903.90it/s] 42%|████▏     | 6912000/16588800 [10:25<14:46, 10909.60it/s] 43%|████▎     | 7056000/16588800 [10:38<14:33, 10913.54it/s] 43%|████▎     | 7056000/16588800 [10:50<14:33, 10913.54it/s] 43%|████▎     | 7200000/16588800 [10:52<14:22, 10882.48it/s] 44%|████▍     | 7344000/16588800 [11:05<14:09, 10888.40it/s] 45%|████▌     | 7488000/16588800 [11:18<13:57, 10871.32it/s] 45%|████▌     | 7488000/16588800 [11:30<13:57, 10871.32it/s] 46%|████▌     | 7632000/16588800 [11:31<13:44, 10869.66it/s] 47%|████▋     | 7776000/16588800 [11:45<13:31, 10866.35it/s] 48%|████▊     | 7920000/16588800 [11:58<13:16, 10885.43it/s] 48%|████▊     | 7920000/16588800 [12:11<13:16, 10885.43it/s] 49%|████▊     | 8064000/16588800 [12:11<13:02, 10891.94it/s] 49%|████▉     | 8208000/16588800 [12:24<12:48, 10902.25it/s] 50%|█████     | 8352000/16588800 [12:37<12:34, 10923.46it/s] 51%|█████     | 8496000/16588800 [12:51<12:20, 10924.96it/s] 51%|█████     | 8496000/16588800 [13:01<12:20, 10924.96it/s] 52%|█████▏    | 8640000/16588800 [13:04<12:13, 10831.23it/s] 53%|█████▎    | 8784000/16588800 [13:17<12:00, 10833.15it/s] 54%|█████▍    | 8928000/16588800 [13:31<11:46, 10845.43it/s] 54%|█████▍    | 8928000/16588800 [13:41<11:46, 10845.43it/s] 55%|█████▍    | 9072000/16588800 [13:45<11:42, 10705.57it/s] 56%|█████▌    | 9216000/16588800 [13:58<11:26, 10744.73it/s] 56%|█████▌    | 9216000/16588800 [14:11<11:26, 10744.73it/s] 56%|█████▋    | 9360000/16588800 [14:11<11:10, 10784.08it/s] 57%|█████▋    | 9504000/16588800 [14:24<10:54, 10818.41it/s] 58%|█████▊    | 9648000/16588800 [14:38<10:40, 10837.56it/s] 59%|█████▉    | 9792000/16588800 [14:51<10:26, 10840.30it/s] 59%|█████▉    | 9792000/16588800 [15:01<10:26, 10840.30it/s] 60%|█████▉    | 9936000/16588800 [15:04<10:12, 10863.48it/s] 61%|██████    | 10080000/16588800 [15:17<09:58, 10878.99it/s] 62%|██████▏   | 10224000/16588800 [15:30<09:44, 10890.21it/s] 62%|██████▏   | 10224000/16588800 [15:41<09:44, 10890.21it/s] 62%|██████▎   | 10368000/16588800 [15:44<09:31, 10883.84it/s] 63%|██████▎   | 10512000/16588800 [15:57<09:17, 10895.37it/s] 64%|██████▍   | 10656000/16588800 [16:10<09:04, 10898.66it/s] 64%|██████▍   | 10656000/16588800 [16:21<09:04, 10898.66it/s] 65%|██████▌   | 10800000/16588800 [16:23<08:51, 10883.95it/s] 66%|██████▌   | 10944000/16588800 [16:36<08:38, 10896.03it/s] 67%|██████▋   | 11088000/16588800 [16:50<08:24, 10897.67it/s] 67%|██████▋   | 11088000/16588800 [17:01<08:24, 10897.67it/s] 68%|██████▊   | 11232000/16588800 [17:03<08:11, 10902.83it/s] 69%|██████▊   | 11376000/16588800 [17:16<07:57, 10912.81it/s] 69%|██████▉   | 11520000/16588800 [17:29<07:44, 10900.90it/s] 69%|██████▉   | 11520000/16588800 [17:42<07:44, 10900.90it/s] 70%|███████   | 11664000/16588800 [17:43<07:33, 10858.58it/s] 71%|███████   | 11808000/16588800 [17:56<07:19, 10878.38it/s] 72%|███████▏  | 11952000/16588800 [18:09<07:05, 10900.42it/s] 72%|███████▏  | 11952000/16588800 [18:22<07:05, 10900.42it/s] 73%|███████▎  | 12096000/16588800 [18:22<06:51, 10907.35it/s] 74%|███████▍  | 12240000/16588800 [18:35<06:38, 10900.41it/s] 74%|███████▍  | 12240000/16588800 [18:52<06:38, 10900.41it/s] 75%|███████▍  | 12384000/16588800 [18:53<07:05, 9871.83it/s]  76%|███████▌  | 12528000/16588800 [19:06<06:40, 10147.06it/s] 76%|███████▋  | 12672000/16588800 [19:20<06:18, 10357.39it/s] 76%|███████▋  | 12672000/16588800 [19:32<06:18, 10357.39it/s] 77%|███████▋  | 12816000/16588800 [19:33<05:59, 10492.71it/s] 78%|███████▊  | 12960000/16588800 [19:46<05:42, 10590.41it/s] 79%|███████▉  | 13104000/16588800 [20:00<05:26, 10661.89it/s] 79%|███████▉  | 13104000/16588800 [20:12<05:26, 10661.89it/s] 80%|███████▉  | 13248000/16588800 [20:18<05:44, 9692.42it/s]  81%|████████  | 13392000/16588800 [20:31<05:20, 9972.00it/s] 81%|████████  | 13392000/16588800 [20:42<05:20, 9972.00it/s] 82%|████████▏ | 13536000/16588800 [20:45<05:00, 10146.40it/s] 82%|████████▏ | 13680000/16588800 [20:58<04:42, 10302.43it/s] 82%|████████▏ | 13680000/16588800 [21:12<04:42, 10302.43it/s] 83%|████████▎ | 13824000/16588800 [21:12<04:27, 10352.37it/s] 84%|████████▍ | 13968000/16588800 [21:26<04:12, 10361.12it/s] 84%|████████▍ | 13968000/16588800 [21:42<04:12, 10361.12it/s] 85%|████████▌ | 14112000/16588800 [21:44<04:19, 9546.04it/s]  86%|████████▌ | 14256000/16588800 [21:57<03:55, 9902.94it/s] 87%|████████▋ | 14400000/16588800 [22:11<03:37, 10065.61it/s] 87%|████████▋ | 14400000/16588800 [22:22<03:37, 10065.61it/s] 88%|████████▊ | 14544000/16588800 [22:24<03:19, 10274.23it/s] 89%|████████▊ | 14688000/16588800 [22:37<03:01, 10448.61it/s] 89%|████████▉ | 14832000/16588800 [22:51<02:46, 10554.59it/s] 89%|████████▉ | 14832000/16588800 [23:02<02:46, 10554.59it/s] 90%|█████████ | 14976000/16588800 [23:04<02:31, 10625.30it/s] 91%|█████████ | 15120000/16588800 [23:17<02:17, 10703.60it/s] 92%|█████████▏| 15264000/16588800 [23:30<02:03, 10763.39it/s] 92%|█████████▏| 15264000/16588800 [23:42<02:03, 10763.39it/s] 93%|█████████▎| 15408000/16588800 [23:44<01:49, 10782.87it/s] 94%|█████████▍| 15552000/16588800 [23:57<01:36, 10798.77it/s] 95%|█████████▍| 15696000/16588800 [24:10<01:22, 10803.11it/s] 95%|█████████▍| 15696000/16588800 [24:22<01:22, 10803.11it/s] 95%|█████████▌| 15840000/16588800 [24:23<01:09, 10821.41it/s] 96%|█████████▋| 15984000/16588800 [24:37<00:55, 10849.63it/s] 97%|█████████▋| 16128000/16588800 [24:51<00:43, 10676.23it/s] 97%|█████████▋| 16128000/16588800 [25:02<00:43, 10676.23it/s] 98%|█████████▊| 16272000/16588800 [25:04<00:29, 10692.21it/s] 99%|█████████▉| 16416000/16588800 [25:19<00:16, 10455.96it/s]100%|█████████▉| 16560000/16588800 [25:32<00:02, 10561.03it/s]100%|█████████▉| 16560000/16588800 [25:43<00:02, 10561.03it/s]16704000it [25:45, 10645.50it/s]                              16848000it [25:58, 10702.18it/s]16992000it [26:12, 10733.36it/s]16992000it [26:23, 10733.36it/s]17136000it [26:26, 10595.62it/s]17280000it [26:39, 10665.94it/s]17424000it [26:52, 10719.94it/s]17424000it [27:03, 10719.94it/s]17568000it [27:06, 10746.48it/s]17712000it [27:19, 10757.31it/s]17856000it [27:33, 10714.45it/s]17856000it [27:43, 10714.45it/s]18000000it [27:46, 10758.79it/s]18144000it [27:59, 10795.13it/s]18288000it [28:12, 10809.96it/s]18288000it [28:23, 10809.96it/s]18288000it [28:26, 10717.14it/s]
###提取成功，提取出88604个心拍，耗时：1706.4259824752808s###
d0714.txt-88604
